-35.1789046722799,-34.4622899423149,-33.7130861882878,-32.9720713131236,-32.2817017984629,-31.6847833636427,-31.2229504485012,-30.9352824910716,-30.8568299453155,-31.017379067722,-31.4402257877098,-32.1412813603834,-33.1282702139335,-34.4003294828655,-35.9477545294256,-37.7521814573491,-39.786930688017,-42.0177813422289,-44.4038789832388,-46.8990255005289,-49.453034078795,-52.0133805402395,-54.5268193342101,-56.9411842185258,-59.2070345740127,-61.2793643176937,-63.1190357157877,-64.6941608788067,-65.9811033643816,-66.9653367892954,-67.6418505254514,-68.0153599609222,-68.1000341996782,-67.9190229021683,-67.5035199299638,-66.8916699753101,-66.1270791317613,-65.2572568537502,-64.3317687243256,-63.4004424471441,-62.5114173731276,-61.7093863360337,-61.0338216165369,-60.5175303031471,-60.1853223381598,-60.0531231079911,-60.127295884819,-60.4044838840257,-60.8717116411193,-61.5070271027119,-62.2803938638655,-63.1550837458048,-64.0892480756369,-65.0378880430384,-65.9548750837561,-66.7952178165643,-67.5172073176634,-68.0846238154852,-68.4686297835149,-68.6495330881558,-68.6180536472122,-68.3762938960113,-67.9380712705635,-67.3288454844927,-66.5849382644067,-65.7523236296231,-64.884736058602,-64.0414268511265,-63.2843686827254,-62.6752894063489,-62.2723814578767,-62.1271073823601,-62.2809779723091,-62.7627421243554,-63.5858700734613,-64.7467594507459,-66.2235205161738,-67.9757289230185,-69.9449461208169,-72.0563257801412,-74.221024873149,-76.3396478161122,-78.3063475036536,-80.0137162434933,-81.3579990551806,-82.2446798199428,-82.5939038420667,-82.3457365135137,-81.4646929075494,-79.9435344933871,-77.8057917063079,-75.1070608682378,-71.9346145495361,-68.405480527546,-64.6626582259381,-60.8697761798715,-57.2040206264824,-53.8478060064213,-50.9791831792494,-48.7616123043082,-47.3332347477596,-46.7963841686308,-47.2075519620166,-48.5685897268874,-50.8193636903122,-53.8325980507074,-57.4110302998861,-61.2874788694283,-65.1277683962883,-68.5368997528017,-71.068169161168,-72.2353641292591,-71.5274733448287,-68.4257748422536,-62.4224918253186,-53.0406601177457,-39.8542147147641,-22.5078056885761,-0.73527338973514,25.6237223488447,56.6099393724635,92.1340466285599,131.970215557626,175.753962738104,222.984798985918,273.033512312915,325.154287245222,378.501122494378,432.148386412872,485.114626850084,536.389162121229,584.960303544272,629.844528843558,670.115318105226,704.930908573418,733.559696689312,755.402640690525,770.01156663611,777.102976811806,776.566570782344,768.468435036505,753.048503647923,730.712657171308,702.019475625079,667.662411238319,628.447763785745,585.269544511597,539.08187201035,490.870176326185,441.621967202955,392.298473610894,343.807859215823,296.981190652711,252.551660526443,211.137976355771,173.232100994368,139.191902771895,109.238526819199,83.4586667490576,61.8111800504513,44.1378843506034,30.1776755945567,19.5835542380021,11.9415096906129,6.79072465569035,3.64399455923982,2.0078379995112,1.40127392725256,1.37288235278098,1.5153171878235,1.47712265710484,0.971286530734388,-0.219336343916906,-2.24001038747096,-5.16510348250848,-9.0020903431844,-13.697934193838,-19.147677791214,-25.204457621409,-31.6906761430797,-38.4095006471849,-45.1564286463161,-51.7301408763272,-57.942476973052,-63.6268861706934,-68.645347627939,-72.8932918273355,-76.3027071413753,-78.8431537222597,-80.5210520082207,-81.3771357689656,-81.4825825361282,-80.9338293049724,-79.84667293247,-78.3497161943984,-76.5777780686181,-74.6653155986168,-72.7404321989696,-70.9194498689042,-69.3025290221471,-67.9702066060118,-66.9812198083208,-66.3713661068369,-66.1536494254799,-66.3193534079951,-66.8401943084687,-67.6711135130472,-68.7538002282364,-70.0204630886913,-71.3979212284554,-72.8115343575862,-74.1890625060299,-75.4640121461883,-76.5786106418549,-77.4860277324414,-78.1520550335258,-78.5559345823084,-78.6906193780145,-78.5622252065003,-78.18901831345,-77.5997507738975,-76.8317298183386,-75.9284626317228,-74.9372800088049,-73.9067850621306,-72.8845232708981,-71.9147023540273,-71.0363314792253,-70.2815742989132,-69.6746461494466,-69.2310076584478,-68.9571418706918,-68.8506249103289,-68.9007378518226,-69.0892947075651,-69.3919046661661,-69.7793204409084,-70.2190748849039,-70.677049071871,-71.1191725814329,-71.5129046456835,-71.828708603564,-72.0411854354001,-72.1301003361247,-72.0809928756903,-71.8856315424742,-71.5420308917021,-71.054319404576,-70.4322020949697,-69.6903292654346,-68.8473353446069,-67.9248749899461,-66.9464315363286,-65.9362311745551,-64.9180390910051,-63.9141671656701,-62.9444610522362,-62.0255837150025,-61.1703472808428,-60.3873916806819,-59.6809416124774,-59.0509192179084,-58.4931231542142,-57.9997317960825,-57.5598236767898,-57.160158197602,-56.7858985098038,-56.4215123532628,-56.0515297318158,-55.6613944585576,-55.2380938153812,-54.7708124790065,-54.2513072903557,-53.6742638705162,-53.0373482186807,-52.341231677241,-51.5893196943645,-50.7874790885132,-49.9435087686389,-49.0666606328546,-48.1669645506118,-47.2546696485223,-46.3395576540993,-45.4304387243403,-44.5345802788739,-43.6573709702193,-42.8019594937539,-41.9691576895557,-41.1573338377182,-40.3625714603205,-39.5788058329317,-38.798200991141,-38.0114687222262,-37.208383953239,-36.3781923675758,-35.5101619342573,-34.5939744309005,-33.6202117473865,-32.5806387308549,-31.4685452042236,-30.2788584115819,-29.0082990709389,-27.655303261597,-26.2199940952163,-24.7039353648472,-23.1099597575394,-21.4418106969722,-19.7038951918806,-17.9008892774217,-16.0374936251603,-14.1180788706696,-12.1465141653808,-10.1259127168423,-8.05858072437827,-5.94589552049073,-3.78839100859417,-1.58576802152979,0.662899897819452,2.95905424871898,5.30436758714622,7.70058039298964,10.1491954145556,12.6513221976364,15.2074068298225,17.817136466551,20.4792492300151,23.191533623057,25.95074199902,28.7526959349086,31.5923018893216,34.4637493244011,37.3606048086068,40.2760704693918,43.2031177341817,46.1347634777229,49.064199601953,51.9850445225529,54.8914300679936,57.7781956610163,60.6409073453114,63.475977960617,66.2806105427443,69.0528455581123,71.7914378863569,74.4958473081314,77.1660707039194,79.8026010555288,82.4062417984848,84.9780610009822,87.5192124409183,90.0309058726745,92.5142508613667,94.9702534997601,97.3996873672577,99.803115223888,102.180780391106,104.53264250413,106.85827551717,109.156902396368,111.427284974295,113.667744795028,115.876035519201,118.049345361326,120.18415312325,122.276219415022,124.320439628698,126.310842900019,128.24046568533,130.101385477359,131.884643656864,133.580342364556,135.177642715695,136.664946571621,138.029985630309,139.260095765757,140.342395587538,141.264142110775,142.012977502157,142.577335111664,142.946714682984,143.112091745081,143.066168952837,142.803733498934,142.321828827672,141.620006606277,140.700370342729,139.56768097187,138.229241190313,136.694835040225,134.976446206044,133.088038403334,131.045128077178,128.864439100798,126.563375266764,124.159604841292,121.670496348585,119.11270187284,116.501627616151,113.851087103355,111.172874451044,108.476549450813,105.769167081787,103.055237442725,100.33664223939,97.6127868792707,94.8807071840559,92.1354027312581,89.3701091404093,86.5767752076129,83.7464518982612,80.8698547798222,77.9378037108441,74.9417994071102,71.874440035562,68.7299381075181,65.5044427674328,62.1964309277065,58.8068766576967,55.3394675854023,51.8005838538245,48.1993151505219,44.5472385140065,40.8582397548171,37.2149515287841,33.5029103508881,29.8053280886395,26.1411747496774,22.5293931277758,18.9884107072742,15.5355356573595,12.1865153892362,8.95501839827738,5.85231491320201,2.88691264108958,0.0644173629996348,-2.61263222151998,-5.14469339357506,-7.53517095126438,-9.79013786679682,-11.9180922849616,-13.9295051451713,-15.8364325699788,-17.6519530343183,-19.3897077364673,-21.063306810167,-22.6858806482114,-24.2695380110643,-25.8250074573304,-27.361219401721,-28.8850995476573,-30.4013240703415,-31.9122995636229,-33.418109961565,-34.9166852419344,-36.4039262612933,-37.8740333742673,-39.3197670569001,-40.7328833402918,-42.104468897559,-43.4254167883803,-44.6867674986032,-45.880157609078,-46.964072988874,-48.0057234627403,-48.9608001365647,-49.8259336122993,-50.599486901656,-51.2816651397795,-51.8744410596323,-52.3815355829035,-52.808224991808,-53.1612178169842,-53.4483757662053,-53.6785237284038,-53.8611241273641,-54.0060607180653,-54.1233063642118,-54.222718484822,-54.313734776179,-54.4052105862387,-54.5051680035988,-54.6206953938873,-54.7577648167405,-54.9212035358888,-55.1145847132301,-55.3402713812311,-55.5993769153386,-55.891874487822,-56.2166173623676,-56.5715013850947,-56.9535306247538,-57.3590168135305,-57.7836730260929,-58.2228319147175,-58.6715487846688,-59.1248198586292,-59.5776762379705,-60.0253843357185,-60.4133211456563,-60.8365735501961,-61.2424928616228,-61.6282809323724,-61.8442382919468,-62.2010212179447,-62.5269679138312,-62.8221050504374,-63.0872029846247,-63.323695798801,-63.5335216445696,-63.7190083783394,-63.8826920394081,-64.0271938290967,-64.1550432813961,-64.268572885262,-64.3697709265727,-64.4602163990375,-64.439291448934,-64.5014542059608,-64.5347702485098,-64.5820335228585,-64.6205437054801,-64.6493120823188,-64.6669601842859,-64.6718544748676,-64.6621974417414,-64.6361879783306,-64.5921254983153,-64.5285698727662,-64.444431423384,-64.3391034666843,-64.2125126663997,-64.0652013094397,-63.89831893112,-63.7136400458656,-63.5134884212799,-63.3006879111042,-63.0784236481611,-62.8501369228203,-62.6193406406745,-62.3894813964744,-62.1637372338199,-61.9448786310378,-61.6834920726514,-61.4776019842799,-61.2831670198143,-61.1001433393886,-60.9275348369805,-60.9192901412538,-60.7467377302293,-60.5827385986223,-60.3954767852463,-59.997381179732,-59.7169923186637,-59.3714967056543,-59.261142670176,-58.8822359592646,-58.3186626326316,-57.8448761941704,-57.4928231888481,-57.0514133370724,-56.8736254753887,-56.4003553552744,-55.9309911818932,-55.2542349149136,-54.6143976208501,-54.0545698804388,-53.4617815402067,-52.5569174745627,-52.0062411798192,-51.3640923824119,-50.9178876329902,-50.098392568579,-49.6460022524217,-48.4480863679058,-47.7495253317594,-47.5853072694294,-47.2143255873372,-46.8373485997695,-46.1202391310035,-45.0146760706475,-44.612146104282,-44.1185594751588,-43.2282965727004,-42.8065486241097,-42.5168883479913,-42.0403752601432,-41.332986805611,-41.0604052480956,-40.6422582600079,-40.2380064878905,-38.9947490359138,-38.4434339389917,-38.1128017966339,-37.2724984846524,-36.1848740481681,-35.290844953391,-34.8526922344389,-34.3973011392802,-34.0153405530927,-33.9647672864728,-33.1132998773765,-32.2817150007832,-31.4228354161306,-30.5837227952651,-30.1762191260527,-29.4685993074212,-28.7191281496098,-28.2991391529791,-27.8729688600296,-27.4725976977298,-26.6510119950645,-25.8902454432305,-25.7810295763065,-25.1006220427156,-24.5886848403448,-24.1570496494323,-23.744007865161,-23.2455908529124,-22.3728351822691,-21.9725637257047,-21.1185805896404,-20.7890883604398,-19.9196660465335,-19.3471936031218,-18.5037285686938,-18.2110412005785,-17.5474798672033,-17.4965812902205,-17.1625121164793,-16.7876612590502,-16.4037739688128,-16.0722870130015,-15.7984303636288,-15.6219857949688,-15.4008463404842,-15.1722012110195,-15.007764104334,-14.827225187661,-14.7221847736166,-14.409942973323,-14.0708297980374,-13.9467468131309,-13.5985861778009,-13.4653432351546,-13.4500858252549,-13.4869202222337,-13.2560433668218,-13.1937352837274,-12.938578455524,-12.9803555476304,-12.8274256215998,-12.6613207215202,-12.6126181683375,-12.61036665714,-12.7206210312226,-12.6623017896671,-12.7004963493533,-12.6542490944899,-12.4182271958155,-12.3844777918702,-12.2598527394752,-12.047046850305,-11.8220699186483,-11.6878950687836,-11.4854627087171,-11.0689411594042,-10.5915273530986,-10.2584530120134,-9.92488768325284,-9.54350350728607,-9.26854985552368,-8.8910943203729,-8.61141400501936,-8.31391735225923,-8.03279033658944,-7.94450842124421,-7.75109536600404,-7.73606744478213,-7.65705861062503,-7.47280770297932,-7.58627943807673,-7.62222089724792,-7.68339235186869,-7.70054596684682,-7.73659228415506,-7.58863982191821,-7.69229671916886,-7.67769182326453,-7.54308125572664,-7.36005640398149,-7.35489424476677,-7.41079485891533,-7.26539569972873,-7.28288466284953,-7.26028953959233,-7.1617934677143,-6.99292475621912,-6.76620132736425,-6.57717969481995,-6.28101468207332,-6.01758490812237
-97.1804281646804,-97.2506114605811,-97.4180480051853,-97.7070381846248,-98.1378059097474,-98.7257001438088,-99.4814083516759,-100.410482150685,-101.513861171905,-102.787682173427,-104.22404849404,-105.811038851112,-107.533625780654,-109.373781323771,-111.311442163185,-113.324616719541,-115.390313814629,-117.484584651369,-119.583368021878,-121.662441033313,-123.698175213234,-125.667408882117,-127.548142253184,-129.319370260654,-130.961760915391,-132.45749267884,-133.790954440878,-134.948615030859,-135.919757475688,-136.69637543474,-137.273917176562,-137.651165147371,-137.830928386373,-137.819829724737,-137.62886150828,-137.272991298083,-136.771494075223,-136.14729848023,-135.427032784623,-134.640069990344,-133.818271732994,-132.99474575189,-132.20333253466,-131.477151521827,-130.847936919143,-130.344505938096,-129.992099213814,-129.8109425915,-129.815772631827,-130.014673595209,-130.408962711457,-130.99246193795,-131.751879711826,-132.666624274382,-133.709752674367,-134.8483555113,-136.045058627567,-137.258918327209,-138.447368094824,-139.567471257332,-140.578117381856,-141.441399469663,-142.124795968307,-142.602385271407,-142.856712421347,-142.879537072781,-142.673090005814,-142.250081337691,-141.63410846481,-140.858734174316,-139.966916410137,-139.009099047897,-138.041688498295,-137.124271851017,-136.317349015832,-135.678981428617,-135.262173530568,-135.111427733274,-135.260319042197,-135.72854932098,-136.520333640314,-137.622570033666,-139.004620113371,-140.618109838876,-142.398518933112,-144.266893394273,-146.133360895547,-147.900683984101,-149.469424479808,-150.742845553249,-151.633019896251,-152.06617484295,-151.988662675703,-151.371528150055,-150.215029408977,-148.551083563742,-146.445027018199,-143.994732249318,-141.328578216945,-138.600458101012,-135.983494659936,-133.660845450843,-131.815484625551,-130.617568706368,-130.211496579382,-130.701481796863,-132.137933777348,-134.50361676727,-137.701987951016,-141.546733434686,-145.754891435597,-149.942502922712,-153.625032489692,-156.221286578667,-157.062796899857,-155.407067441667,-150.456281504114,-141.379466882252,-127.339302584598,-107.52115707539,-81.165156762079,-47.5985321445679,-6.26875766989254,43.2254739570428,101.105044022506,167.38594300188,241.859060551119,324.077009217004,413.347190685953,508.733482452859,609.065266896857,712.955624595028,818.826808942918,924.944193493846,1029.45617861612,1130.44064482688,1225.95488809449,1314.08915090731,1393.02031108399,1461.0655879478,1516.73270713467,1558.76640539563,1586.18788389866,1598.32740095501,1594.84705515534,1575.75450984703,1541.40536665861,1492.49566702744,1430.04299981229,1355.35847542337,1270.00880495679,1175.77145245169,1074.5827240385,968.482278617475,859.55430979726,749.869122906851,641.425439308571,536.097074559058,435.584089472787,341.371682174486,254.696413319496,176.522419606467,107.526515441996,48.094096081795,-1.67601753598185,-41.956624489443,-73.1696405477513,-95.9555055415057,-111.137591677469,-119.681484885669,-122.652510202322,-121.171514318005,-116.372275817093,-109.360418648516,-101.176934904708,-92.7658166103768,-84.9484352089471,-78.4036326897361,-73.655584290467,-71.0678013260579,-70.8447481656459,-73.0388901892972,-77.5641514668772,-84.2131790189359,-92.6790625033565,-102.578676514956,-113.478170158996,-124.917752725749,-136.436383179439,-147.593687999772,-157.989970947781,-167.281959767043,-175.195520772307,-181.533381656807,-186.179497436134,-189.098493760191,-190.332189059885,-189.991953835018,-188.249177794463,-185.322808421485,-181.466367294839,-176.953471611361,-172.06426075014,-167.071683086973,-162.229912372093,-157.763669846123,-153.860505377732,-150.664573357663,-148.273704769093,-146.738060617158,-146.06193077287,-146.206749722255,-147.096711921632,-148.624915762791,-150.661319434215,-153.060383159541,-155.669670967621,-158.337318088685,-160.919705974724,-163.287351081618,-165.330473512533,-166.962392005553,-168.122359907736,-168.7761375014,-168.916057262514,-168.559006021058,-167.744190636351,-166.529198708876,-164.986283521161,-163.197421278164,-161.25008066865,-159.232239477595,-157.228553369741,-155.316158556562,-153.561946367714,-152.019714630958,-150.728951824911,-149.713575923805,-148.982303965752,-148.528900859448,-148.333919437744,-148.366127782667,-148.585196289793,-148.943814595327,-149.390798575624,-149.873358316365,-150.340099933382,-150.742955162953,-151.039643119094,-151.194896101832,-151.182096143029,-150.983598671404,-150.591434672627,-150.006710756446,-149.23943824701,-148.307145785279,-147.234035881881,-146.049062679235,-144.784707076484,-143.474834922268,-142.153415666118,-140.852481516769,-139.601092494162,-138.42366982326,-137.339440785273,-136.361331598086,-135.496023129888,-134.743476505387,-134.097613952425,-133.546433783719,-133.073219156994,-132.657097320639,-132.274591219624,-131.900407528103,-131.509095952774,-131.075822684006,-130.577897456582,-129.995307219517,-129.311910943282,-128.515567778524,-127.598875461601,-126.558815552172,-125.397007528601,-124.11889293774,-122.733574471286,-121.252651099225,-119.689790166244,-118.059388940697,-116.376072687969,-114.653382496194,-112.903395299291,-111.135619687689,-109.356895928814,-107.57062623899,-105.777043697131,-103.972824492022,-102.151730444486,-100.304566149939,-98.4201195547332,-96.4853553681838,-94.4865191265257,-92.4094147775403,-90.2405117801012,-87.9671474444217,-85.5784877399902,-83.0655233550344,-80.4217783592979,-77.6430245292304,-74.7276960980176,-71.676315485101,-68.4916413261569,-65.1778640466489,-61.7405723272742,-58.1858244645004,-54.5200530760703,-50.7491384373953,-46.8783764344208,-42.9116704983357,-38.8516646147311,-34.6991355469765,-30.453348559016,-26.11168119997,-21.6702059095124,-17.1235233118701,-12.4655257893126,-7.68937413252074,-2.78836030523032,2.24406466595573,7.41342558425251,12.7242399465825,18.1792403915745,23.7795155133553,29.5238846169828,35.409210077224,41.4299532484354,47.5786680170141,53.8457289552706,60.219980212834,66.6885955413341,73.237830667952,79.8529552707567,86.5190444271746,93.2209171576989,99.9439038420989,106.673733323832,113.397225662147,120.102086193299,126.777492041717,133.413771950796,140.002875537859,146.537937342296,153.013635647311,159.425654602303,165.770952035598,172.047143171812,178.252703683457,184.386302793115,190.446969950344,196.433405622299,202.344139399676,208.176845594459,213.92851920212,219.594822145032,225.170302474294,230.647796271379,236.018714693528,241.272525509779,246.397130898597,251.378449784628,256.200904914836,260.847120801102,265.298529959217,269.535190188855,273.536506391078,277.281155300579,280.747901997802,283.915601898875,286.76407261276,289.274125363169,291.428437114901,293.211550862851,294.610684219616,295.615634164369,296.219460005934,296.418235876307,296.211559734105,295.602116440444,294.595989213449,293.202025115394,291.431957357953,289.299598527685,286.820815496498,284.012607198546,280.893001818788,277.480098714527,273.791973851501,269.845774242425,265.657718209249,261.242322927345,256.612570145298,251.779323990594,246.751702955519,241.536710363347,236.13981547546,230.564779789069,224.814411616384,218.89053556527,212.7948536187,206.52897988578,200.095323228278,193.497099490593,186.739149318642,179.827847068054,172.771782311833,165.581506398598,158.270033555861,150.852397572545,143.345962286321,135.769795348346,128.144811230813,120.492999641779,112.837450680961,105.201496755989,97.6545812443894,90.129272018469,82.6921240884244,75.3638643738018,68.1637574513749,61.1089024778871,54.2143753235497,47.4926531730045,40.9538920725985,34.6054895448026,28.4524980090096,22.4973169410746,16.7402259750097,11.1791840448867,5.81045463847537,0.628480792179168,-4.37343097480048,-9.20319452249518,-13.8692364990008,-18.3805736507352,-22.7461151477012,-26.9747654379206,-31.0747667301123,-35.0538554364406,-38.9186703106857,-42.6749850413846,-46.3272012217713,-49.8786723722892,-53.3312925674307,-56.6859176915174,-59.942049975829,-63.0983507585332,-66.1524089492875,-69.1013270077492,-71.941548972817,-74.6694897568684,-77.2813881625122,-79.7739414280571,-82.1441431547567,-84.3379978001732,-86.4609859074989,-88.4580202589889,-90.3296811636569,-92.0778356531297,-93.7053470045554,-95.2163138359212,-96.6156846421489,-97.9094106397447,-99.1039871478025,-100.206550062883,-101.224380446336,-102.164985492157,-103.035609404443,-103.843341714142,-104.594674604241,-105.295673695414,-105.951609841415,-106.567211661578,-107.14638121578,-107.692527302146,-108.208353759452,-108.696252771687,-109.158136900632,-109.595857251178,-110.011040136872,-110.405489620002,-110.780989600225,-111.13965539242,-111.483672134632,-111.815574502249,-112.13791018289,-112.45344694933,-112.764771044206,-113.074441525027,-113.384552326476,-113.547097158498,-113.861099864379,-114.178534379762,-114.498899369591,-114.650148886927,-114.989341133627,-115.318450263173,-115.633631334992,-115.930681067861,-116.204908544436,-116.451543600839,-116.665653928584,-116.842583171552,-116.977878656013,-117.067719859782,-117.108816380581,-117.098787930353,-117.0359977485,-116.84381314676,-116.673266436091,-116.396726975608,-116.126432553245,-115.809544502376,-115.449224049229,-115.049106060243,-114.61286101071,-114.144267805936,-113.646786460057,-113.123661556831,-112.577543272683,-112.01065357975,-111.424480244179,-110.820021491371,-110.197558939166,-109.556976715171,-108.897599782086,-108.218565479311,-107.518698309275,-106.79690007408,-106.052024686747,-105.283250282706,-104.489919644674,-103.671864293037,-102.829186821595,-101.960428066427,-101.066264701773,-100.150453113412,-99.2145671641901,-98.2604298854505,-97.4495957065471,-96.4707400782272,-95.4636964036021,-94.4654931481129,-93.3129685282886,-92.1824189961363,-91.1414707178054,-90.2623705041261,-89.1536356930326,-88.1357452931466,-87.1045635110601,-86.1918279568962,-85.129445016503,-84.4377741212708,-83.5209127748191,-82.5442160855879,-81.3705672941108,-80.121058118383,-78.8862488469369,-77.8197019387209,-76.439102457931,-75.1561911310958,-73.9129082020506,-72.7799698203508,-71.4082750937962,-70.4054280397013,-68.9009520518668,-67.8493038069568,-66.6624207448521,-65.6377728382604,-64.6846983384787,-63.8407108421299,-62.8326930563736,-61.7605037939262,-60.94650445858,-59.8802042660742,-58.9418098939134,-58.0944156329956,-57.4581722512082,-56.5682180635236,-55.7505326122996,-55.347573258556,-54.5911747930536,-53.6203316847354,-52.6761944167837,-51.7969394333823,-50.8627907694924,-50.1210994105683,-49.0489602722189,-48.2947401276673,-47.517016537738,-46.9412366920084,-46.0561628242138,-45.3015173190216,-44.3920390767319,-43.5175982184815,-42.9452477095098,-42.4322863840379,-41.8266403281546,-41.0802485276616,-40.5476312214719,-39.920395752141,-39.2545930190687,-38.5132779886726,-37.97035206643,-37.7110657462035,-37.234746267656,-36.7983974398715,-36.4404901360587,-35.9952337747928,-35.579751765737,-34.7527660856939,-34.2362599410767,-33.4157396725848,-32.8135978291845,-31.9415620923039,-31.3008403474602,-30.815085387557,-30.2616671800688,-29.6764047857633,-29.2505299407659,-28.7108909213178,-28.1372870170981,-27.6106741664042,-27.1616126154516,-26.799524976492,-26.4156329790436,-25.8823169093912,-25.4993830293578,-25.1440101207215,-24.8537136779554,-24.6726713188574,-24.3100973639435,-23.9174311166707,-23.7483336031698,-23.4390473798002,-23.2723805648866,-23.0555777082273,-22.8142381915995,-22.59129972842,-22.4352387606841,-22.2366015711371,-22.2288485899163,-22.0088152816488,-21.7427439680959,-21.6021306016274,-21.5120713782393,-21.4848593039643,-21.3246385646502,-21.1346148149639,-20.9141181283056,-20.6335446914077,-20.4376396213553,-20.0858767050767,-19.7276082677534,-19.3102094409972,-18.9338888454127,-18.5802095900839,-18.0636037355222,-17.5164251530938,-16.9831509523116,-16.480015524659,-16.016559264952,-15.6982101132815,-15.3146924816864,-15.0305680895675,-14.6250737473926,-14.2155089491774,-14.020125176954,-13.77990904599,-13.7013568581273,-13.5547800310957,-13.2774279650168,-13.202457447062,-13.1538393662206,-13.1593381140161,-13.1159593274468,-13.0963916407964,-12.869940002608,-12.9064289045689,-12.8158130265701,-12.6265645445606,-12.3627601352791,-12.3370630003449,-12.2728046975085,-12.000160523565,-11.8467744623969,-11.7326439741,-11.453041185009,-11.1884432296104,-10.8159536777838,-10.5914466611877,-10.1891285225102,-9.85458918710935
-8.06296979724253,-7.96901035475683,-7.94750899520377,-7.9935102271248,-8.09872473757382,-8.2511035694612,-8.43595877670859,-8.63577043877889,-8.8315165072504,-9.00265853777908,-9.12861324180158,-9.18883684831801,-9.16434685295917,-9.03780376216732,-8.79497429608754,-8.42469711502905,-7.92017284774976,-7.27870190603074,-6.50269657022597,-5.59909791532599,-4.58003350634607,-3.46185808867745,-2.26542678662211,-1.01475812743275,0.26304754703268,1.5394606190582,2.78486422791983,3.97039748783821,5.06840584156154,6.05430047344798,6.90692648335985,7.61023958098152,8.15339332442594,8.53204367519176,8.74798457557599,8.80993741588587,8.73262811130578,8.53699786723862,8.24870683962145,7.89780344261307,7.51674516317612,7.13966899517474,6.80012014289567,6.5301561078368,6.35804892102937,6.30751093638886,6.3956687459623,6.63270550771637,7.02038408105028,7.55235225789782,8.21341717366326,8.98065941055608,9.82353877202464,10.7058241915086,11.5864603497768,12.4221644351213,13.1688287710655,13.7844898784475,14.2309125358026,14.4765295193333,14.4977743133943,14.2815458490937,13.8258512622208,13.1413850144196,12.2511200535243,11.1907087811972,10.0068175333948,8.75624738242017,7.50302499802706,6.31637900984516,5.26684815907838,4.42349626368905,3.84953392258205,3.59936673423032,3.71440304592322,4.22065997122628,5.12550350133187,6.41654665463771,8.06000833424031,10.0015053441588,12.1665112807819,14.4633701017718,16.7860003907794,19.0190708527387,21.0426704447129,22.7391405493322,23.9989842171716,24.7284217383148,24.8554251148921,24.3367391094703,23.1626853491508,21.3622503687044,19.0052793247755,16.2043350260031,13.1131363011017,9.92425962953541,6.86317118565601,4.18145048615703,2.14646801695896,1.03058376083133,1.09733676854854,2.58789333495437,5.70540796384474,10.6007227614219,17.3571827422326,25.978073381311,36.3744895634977,48.3571202661512,61.6296799234771,75.7873361899426,90.3176762725594,104.607323365005,117.951464931002,129.569091095395,138.620870059826,144.232115214301,145.517432327575,141.609182267605,131.686061838235,115.00369914754,90.9233857745217,58.9407305469841,18.7103218491118,-29.9317711658855,-86.9514435982399,-152.103907261596,-224.928452118094,-304.748227700871,-390.678140911106,-481.63803535439,-576.373778433516,-673.482944722751,-771.447257347392,-868.668042157796,-963.50647126003,-1054.32453035366,-1139.52824487789,-1217.60894765216,-1287.1840685998,-1347.03327588252,-1396.13159635561,-1433.67558816779,-1459.10452458265,-1472.11306849048,-1472.6578634014,-1460.9550291788,-1437.47151933709,-1402.90786060652,-1358.17574450161,-1304.36846482583,-1242.72808590846,-1174.60767636478,-1101.43274695351,-1024.66038483439,-945.740278932264,-866.076082618514,-786.991163516573,-709.696950423687,-635.267610799307,-564.618886651965,-498.494391123613,-437.456731972972,-381.886291519734,-331.984564774005,-287.784447611796,-249.163982672253,-215.865618982643,-187.517226960563,-163.656736904873,-143.756537571982,-127.24948176281,-113.552695616165,-102.091173968695,-92.3175603128274,-83.7303505337396,-75.8872174643489,-68.4160211136748,-61.0205393982374,-53.4838192462822,-45.666501061446,-37.5033050351636,-28.9952805999209,-20.2012070250805,-11.2258912580544,-2.20883792688183,6.68893384189517,15.296479536911,23.4452289913383,30.978673884643,37.7619089199735,43.6878924025044,48.6830978782741,52.7096351424092,55.7667216157041,57.8887791610503,59.143213322692,59.6252985133286,59.4533419870876,58.7616301378074,57.6943727659975,56.3981549112826,55.0160833645787,53.6810779994492,52.511409541877,51.6058281991994,51.0412652263249,50.8703251299076,51.1214232386392,51.7986645032569,52.8842073938707,54.3401134360147,56.112349965283,58.133891718436,60.3295564089699,62.619509916557,64.9240875530009,67.1668975527686,69.2789000877161,71.2004876371476,72.884328698952,74.2960743670719,75.4157645266959,76.2371053436026,76.7675210646788,77.0262094605612,77.0431508831406,76.8563351282342,76.5101781444609,76.05240203967,75.5323474850892,74.9979779687963,74.4945215170385,74.0619782658648,73.7344029348522,73.5381506863139,73.491954318506,73.60598096044,73.8826984612078,74.3166659367184,74.8960501792787,75.6029599428886,76.415383868646,77.3078147685606,78.2533432164226,79.2243063940756,80.1942837665348,81.1385387361623,82.0357146963528,82.8679041315664,83.6219203181193,84.2889120562446,84.8651724932818,85.3513028557336,85.752600688551,86.0778495032532,86.339392590586,86.5516777967882,86.7311624621318,86.8947682501337,87.0597745519856,87.2423364277917,87.457509050032,87.7179553361762,88.0342073837676,88.4136455073926,88.8610516547572,89.377886827222,89.963135382013,90.6128528057619,91.3212482103444,92.0804284014434,92.881627308008,93.7150427202477,94.5711019459138,95.4402789150091,96.3142875923339,97.1857799244849,98.0493809872161,98.9011990396535,99.7396537898391,100.564771809357,101.378803637691,102.185322176864,102.989666468545,103.797898425817,104.617142629032,105.454480560126,106.317270838112,107.212065932964,108.144993801702,109.120769832241,110.143200826989,111.214338513046,112.335135712395,113.504753871077,114.721366607189,115.981600284582,117.281449765071,118.615805342574,119.97942572909,121.366491639518,122.771575208165,124.189161850707,125.614563362738,127.043363626542,128.472241324586,129.898317104538,131.319875741441,132.735616587959,134.14528806831,135.548863804658,136.94711931484,138.34076881935,139.731021778097,141.118718158924,142.504900430532,143.889978750576,145.274344142217,146.657582526056,148.039140664703,149.417593280707,150.791359163167,152.15801283814,153.515037627956,154.859165458912,156.187148818779,157.495110549857,158.779317859879,160.035527733882,161.259751974252,162.447591059201,163.594987029197,164.697546374384,165.751284566329,166.751944177982,167.69573867206,168.578673680627,169.397297200564,170.14802940565,170.827922017893,171.433996232761,171.964007365725,172.415783532319,172.7879850961,173.079431152787,173.289839242556,173.41912459458,173.468105744923,173.437764085064,173.32990598565,173.146377311544,172.88968155664,172.562154166074,172.166547019211,171.705178199375,171.180503221328,170.594264522607,169.948076423148,169.242602652883,168.478183154888,167.654065972065,166.769098881258,165.821033875223,164.807295913587,163.72436542741,162.568622196313,161.335796294634,160.021870154393,158.62257428133,157.134318096431,155.553696592923,153.878413270253,152.106759921845,150.238494538057,148.274259581293,146.216384376105,144.068217033491,141.834833339722,139.522272059817,137.138148262002,134.690798230408,132.18981143172,129.645106521356,127.067409674004,124.467294318537,121.855641845388,119.242682794468,116.638477664307,114.051995610044,111.491648199191,108.964433905004,106.476547444613,104.032606266082,101.636344771108,99.289925081364,96.9947116230115,94.750655351947,92.5571323544959,90.4123806420028,88.3143784636885,86.2603071647119,84.2474417338958,82.2726124628939,80.3330817687005,78.4259809391477,76.5491525257212,74.7005450473081,72.8790077609433,71.083634224181,69.3145044071882,67.5719759481208,65.8573759882876,64.1722456288189,62.5189896410302,60.9000844090756,59.3186974222202,57.7778717459456,56.2811290290277,54.8316445314931,53.4328476284426,52.0876010379313,50.7988118750122,49.5686273237689,48.362488006231,47.254335452528,46.2089151099381,45.2260896339873,44.3054304906382,43.4455113566668,42.6446472781835,41.9002243472717,41.2094727219179,40.5688265978672,39.9747228823478,39.4229812307988,38.9096164291917,38.4302252451673,37.9807984641361,37.5571002692557,37.1554660350765,36.7721613635939,36.4041543976708,36.0484454609923,35.7028074771574,35.3650827587996,35.0338912009738,34.707897001241,34.3864903322614,34.0690322573352,33.7555201878956,33.4458226982579,33.1403411416054,32.8392466408869,32.5431492895192,32.2523472032582,31.9675110692748,31.6889504730878,31.4173162137602,31.152883479786,30.8962688155891,30.647724689352,30.4078638241188,30.1738657896169,29.9534521960898,29.7427836395176,29.5425589726529,29.3531315538034,29.1752513567678,29.009289088912,28.8559657217843,28.715566603458,28.5886646103437,28.4753322857326,28.3758678619399,28.2900151755182,28.2177020484737,28.1582764552827,28.1112640418907,28.0756250659921,28.0505329230695,28.0346508793215,28.0269277903018,28.0258882081191,28.0304366977962,28.0391511407907,28.0510846030491,28.0650507033706,28.0804126071437,28.0963514780675,28.1126356915279,28.1288680137441,28.1452335112703,28.1617268351204,28.1788829551867,28.1969910732017,28.2168165666022,28.2388111048942,28.2638358132918,28.2579952488389,28.2903487226415,28.3274265630912,28.3699984657047,28.4581566888274,28.5074901248059,28.5648514714611,28.6308515151889,28.7056749565582,28.7898711976607,28.8836059937824,28.9874460683994,29.1016004594815,29.2266917647929,29.3629823822926,29.5111303924503,29.6714016878853,29.8444144127023,30.0005388200772,30.1991837516841,30.38634556271,30.6097111308076,30.8461416864887,31.0957011298565,31.3579225179146,31.6325915020491,31.9190036170248,32.2167684569185,32.5250841349995,32.8435534970342,33.1714642467246,33.5086036450599,33.8545296389959,34.2093693211878,34.5730673598744,34.9461565895188,35.3289751198076,35.7224041938615,36.1270533820226,36.5439696095675,36.9737987547592,37.4174781961879,37.8753905196505,38.3480577175997,38.7762692295111,39.2808753657604,39.7989291304837,40.3294137858033,40.870521896353,41.2840491050034,41.7863753058345,42.3539489506296,42.8731499677586,43.3498054578923,43.8552855318645,44.2521818668288,44.4558621395138,44.8243095464719,44.905028305581,44.7928233677133,44.8196510239265,45.0291390339975,44.7416413316217,44.7823919783163,44.6407237964962,44.7539458885337,44.7066524208903,44.9624080408619,45.0094377816787,45.0640041584386,45.2790762879048,45.2206086851619,45.2295865456405,44.9054398634444,43.9030761008575,43.3397739161565,42.4081219280077,42.3266286261316,41.6113550589406,41.3254545337108,40.3570666345786,39.9781916323327,39.2967248198197,38.7854242233675,38.2262335810845,37.8555408658491,37.215593127527,36.6594738224042,35.8332103205471,35.5100154276998,33.9679306295545,33.4539851069188,32.1910244373646,31.6886329302441,31.3302888613543,30.9100394923742,29.4331349393896,28.8493511352073,28.043470303008,27.5154009426199,26.4972749845396,26.1370053304133,25.4166112731343,25.0766340104791,24.5317852336433,23.6486615827239,23.1992433643903,22.7727698117653,21.8916835228266,21.3112665858461,20.8521373558239,20.421135617108,19.882375376801,19.3947342807502,18.8983633662762,18.4340178945876,17.9418842140093,17.6423912417663,17.2823393969513,16.804996553577,16.1369124122926,15.7655943395917,15.1360456930426,14.7154814741541,14.3040678865838,14.1146478478005,13.4656677331473,13.2101928267422,12.5125815350559,12.4284530965288,12.1982039349935,12.1502928708749,11.9882654340005,11.8260034110782,11.7167744842597,11.7338964772727,11.5788603910691,11.4681024316048,11.3776980679154,11.3150551905313,11.315067490004,11.125088891121,10.9512780177833,10.6274477510964,10.464645745614,10.2498822703389,10.2237169093007,9.98151434986482,9.57052121341138,9.41905329889921,9.11506116216536,8.89914915793313,8.76021944308042,8.60242192899658,8.53291910914713,8.36214567615976,8.29791551367391,8.18027541956303,7.87776980142352,7.673028783181,7.51658118450225,7.48749441896134,7.47155224787456,7.27096214358456,7.27021957441237,7.31023562337449,7.30399239686622,7.23382641079355,7.09840678788411,6.91354094385292,6.76004706893405,6.71900310889963,6.77825582576103,6.69641891622711,6.61564611560408,6.52088402096989,6.39669838893677,6.3104544139668,6.14807031535048,6.03068177318939,5.88181258334453,5.59336570295223,5.47328616621716,5.46639987227532,5.39709410536741,5.24870672715416,5.00390747959896,4.84594905429469,4.77330378741387,4.58731426279799,4.4337389557842,4.2450195828088,4.19953476001731,4.1720311036493,4.05448826613063,4.06400038602701,4.12319769659914,4.10035213090582,4.06392292482473,3.92342327698206,3.93841686286913,3.84486770018648,3.82636941520225
-65.831231259067,-66.1525686062649,-66.5308970429368,-66.9702911429539,-67.4717018223865,-68.0324041760531,-68.6467873066986,-69.3060427867457,-69.9991782436995,-70.7129049308561,-71.4328184848728,-72.1434151634025,-72.8293571654606,-73.4755249557769,-74.0682673059181,-74.5953858039359,-75.0472653004962,-75.4166898744474,-75.6997607726114,-75.8954630394646,-76.0063064566622,-76.0375984790385,-75.9977872204298,-75.8974456155634,-75.7493486999165,-75.5672288327308,-75.3656736219601,-75.1587625986981,-74.9599163340389,-74.7805600587121,-74.6300780390053,-74.5146594888228,-74.4375069376604,-74.3979984385849,-74.3922612899404,-74.4127319958908,-74.4491407229628,-74.4884736560012,-74.5163292994353,-74.5172001596586,-74.476075326007,-74.378877492562,-74.214115809182,-73.9732587367991,-73.6522044926623,-73.2513555746914,-72.7766836393697,-72.2393062180904,-71.6559824415947,-71.0480753075913,-70.4414178060637,-69.8646633398862,-69.3485918570469,-68.9239857229384,-68.6205780474767,-68.4647147368598,-68.4782545118907,-68.6763625157241,-69.0667277526774,-69.6478568020575,-70.4089612786386,-71.3290691642513,-72.3778461298794,-73.515717578626,-74.6957315344148,-75.8647023577659,-76.9660220933781,-77.9416259745976,-78.7354478822587,-79.295806347107,-79.5790185683641,-79.5516546585096,-79.1937131650999,-78.500127193852,-77.4828938833109,-76.1712632833374,-74.6123209268478,-72.8694555913205,-71.0211142954765,-69.1574138456188,-67.3770960128832,-65.7824845624606,-64.475020261577,-63.5491172974555,-63.0869945505391,-63.1522906160922,-63.785165930467,-64.9967320091964,-66.765520840507,-69.0338208392043,-71.7065545425461,-74.6504623471344,-77.6961821760141,-80.6408830080604,-83.2539178514981,-85.2830159231584,-86.4633324779107,-86.5267254943296,-85.2134296855415,-82.2833578610397,-77.5290759024375,-70.7875780273407,-61.9528314263886,-50.9861704532689,-37.9264971181262,-22.8973921429575,-6.11315470897069,12.1190267353315,31.398621694914,51.2356565800531,71.0566242936695,90.2148278277449,108.002593429124,123.667548239882,136.43017274445,145.5046094628,150.11974486763,149.542380568445,143.099380326827,130.200519425931,110.358878874022,83.2105152807145,48.5303028386631,6.24578126175141,-43.5539442274875,-100.612224897617,-164.504537695293,-234.641517687954,-310.277800296077,-390.524099510065,-474.364677623,-560.677350835423,-648.257923708816,-735.845963114025,-822.15360841233,-905.894177096215,-985.812161801007,-1060.71133163589,-1129.48254398115,-1191.12804633212,-1244.78399514946,-1289.73814205109,-1325.4446288926,-1351.53309274256,-1367.81429996828,-1374.27980503443,-1371.09815409583,-1358.60542529901,-1337.29290707016,-1307.7899624978,-1270.8451034539,-1227.30350367577,-1178.08410856908,-1124.15465421435,-1066.50778389337,-1006.1365526758,-944.012436156725,-881.064015469782,-818.159295832591,-756.089638671669,-695.558047518972,-637.169554650303,-581.426208873435,-528.724174194075,-479.355213881222,-433.509863160509,-391.284384888161,-352.688663203984,-317.657017314977,-286.059016697753,-257.712245449198,-232.39410110939,-209.854615829999,-189.827457762039,-172.041200659001,-156.228141561066,-142.132892128391,-129.518170066562,-118.170165230889,-107.901052040838,-98.5511584237836,-89.9884840348145,-82.1081805442291,-74.8297677995304,-68.0947563557182,-61.8624838166986,-56.106845442359,-50.811714154052,-45.9676981040766,-41.5679816943522,-37.6058355696686,-34.0714693525206,-30.9507351110995,-28.2232763922442,-25.8625542586229,-23.8352743869837,-22.1025845416293,-20.6205152558682,-19.3419942785565,-18.2178821818642,-17.1993477202907,-16.2390313259492,-15.2933281697718,-14.3232622623115,-13.2963143766193,-12.1867126407306,-10.9765896051613,-9.65555693152244,-8.2211428260159,-6.67768166885,-5.03613453098456,-3.31245751014878,-1.52701703798014,0.29731797078042,2.13590263250775,3.96423333217275,5.75855972044667,7.49757769966772,9.16272606597708,10.7394948159955,12.2172913431026,13.5902965193352,14.8568800474645,16.0200283026219,17.0863724236503,18.0662847179963,18.9726420148517,19.8207307425462,20.6268949564437,21.4084008159663,22.182114018839,22.9644560964642,23.7702262634567,24.6127433931389,25.502882670225,26.4494492136877,27.4584514106572,28.5337054254597,29.676324181044,30.8855145045307,32.1582298004037,33.4900979032081,34.875169282418,36.3069047809102,37.7779491164593,39.28111167374,40.8091041887634,42.3554609823982,43.914195969189,45.4806269763517,47.050926518859,48.622834347707,50.1950954181005,51.768062704015,53.3430321442524,54.9227522602859,56.5106782876333,58.1114153437008,59.7299218774663,61.3719187521348,63.0430754692705,64.7494186003541,66.4965331245152,68.2900004363072,70.1346419704686,72.0350100608399,73.9946925070688,76.016869748517,78.103688252006,80.2568861025977,82.477231563927,84.7652079430271,87.1205031703775,89.5427354759512,92.0309721069584,94.5844715582557,97.2022059464793,99.8835942898345,102.628004200522,105.435454161291,108.306075756654,111.240770244217,114.240621279286,117.307500716947,120.443431804101,123.651149015141,126.933420886033,130.293576757928,133.734804985314,137.260664219594,140.874375509768,144.579336522555,148.378424865832,152.274530680591,156.269884057235,160.366615822617,164.566115549167,168.869623644987,173.277619799568,177.790443257571,182.407706059781,187.128933878399,191.952995047671,196.878752181342,201.904497020527,207.02860318428,212.248957934012,217.56360822054,222.970182791501,228.466526309459,234.050107907735,239.718640715734,245.469475271935,251.300203748984,257.208038208803,263.190400036241,269.244283944062,275.366833855259,281.554694228772,287.804574354148,294.11258947102,300.47481661284,306.886629490612,313.343250850017,319.839087200197,326.368284940797,332.924073341242,339.499333862172,346.085961586417,352.675458357344,359.258323245567,365.824679503741,372.363702878495,378.864289370005,385.314525938767,391.70240061882,398.015313703135,404.24082450169,410.366193347414,416.379151431795,422.267456407019,428.019664886291,433.624678717363,439.072495573747,444.353720692991,449.460270844801,454.38482849466,459.121478963643,463.665090802156,468.011874886826,472.158685518458,476.10350231442,479.844659536579,483.381264935654,486.71237780763,489.837391012926,492.75518880108,495.464526698931,497.963206082926,500.248489684847,502.316329835444,504.161854088576,505.778677687507,507.159484526864,508.29544255795,509.176891399056,509.792863994679,510.131875946565,510.181540365873,509.929438192209,509.362798627806,508.469417044675,507.237363146886,505.655905677272,503.71520621906,501.407208988787,498.725280581415,495.665028707256,492.223856656437,488.401685809662,484.200406567975,479.62449385643,474.680351446264,469.376824997746,463.724451540585,457.735888357505,451.425091530917,444.807689055452,437.900120051473,430.71998557016,423.285182430869,415.614264839071,407.725603895983,399.637787914668,391.368831417025,382.93663319968,374.358248646599,365.650413930174,356.828884599001,347.909023687385,338.90519960304,329.831427026191,320.700809569574,311.526216354306,302.319750614206,293.093442280365,283.85872286266,274.627115149482,265.409696922522,256.217772335155,247.062311457172,237.954593049203,228.905612526004,219.926691608027,211.028852982341,202.223397715953,193.521249834659,184.933506728985,176.470760533863,168.143629690674,159.962066205553,151.93587801312,144.074032010924,136.358232030607,128.851159256693,121.531901345254,114.406455300921,107.480204718529,100.757270328697,94.2410802411465,87.9337468230433,81.836664716381,75.9499163303867,70.2728987007648,64.8037574341792,59.5400410140526,54.4781605814396,49.6140678850949,44.94273596895,40.4588547973524,36.1563259605804,32.0289683194576,28.0700184890559,24.2728378892262,20.6304102511355,17.136041421468,13.7828455914996,10.564430148851,7.47436374215025,4.50684031020077,1.65612429026992,-1.08280957109015,-3.71485589577057,-6.24416372551732,-8.67474037390951,-11.0098593493234,-13.2526852295427,-15.4057002956985,-17.4713454374811,-19.4514598684971,-21.3479319962411,-23.1621459168278,-24.8628122881292,-26.515451689355,-28.0901087122641,-29.5878806799039,-31.0101990721505,-32.3582493966946,-33.6336175340572,-34.837698081493,-35.9723283319482,-37.0391837961641,-38.0403992841784,-38.9779518243049,-39.8542697883584,-40.6716048281921,-41.4326312849754,-42.1398099251666,-42.7959808600244,-43.4037226352066,-43.9659424088153,-44.4852341886822,-44.9644699509817,-45.4061604347865,-45.8130501837141,-46.1874833136271,-46.5320042122213,-46.8487292540551,-47.1399533346471,-47.407526923907,-47.6534671046255,-47.8793380291448,-48.0868640857233,-48.2773111434903,-48.4520992234205,-48.612182142167,-48.7586577689465,-48.8921448334357,-48.9423374665696,-49.0519550839573,-49.1499475582536,-49.2361619026329,-49.2306080963486,-49.2998965018668,-49.3545939884824,-49.3936870140904,-49.416325623778,-49.4212166948397,-49.4072530950607,-49.3729180173763,-49.316925920158,-49.237638494767,-49.1337161978083,-49.0035428915111,-48.8458833302221,-48.6593103774651,-48.4319269010324,-48.1864586271329,-47.889713149291,-47.5822016917094,-47.2427538976109,-46.8712091429557,-46.4679882933436,-46.0334660395304,-45.5685638316238,-45.0741033665371,-44.5513836713537,-44.0015226773009,-43.426027031515,-42.8261314593695,-42.203371523615,-41.5589308614938,-40.8942261942287,-40.2102703501873,-39.508275520486,-38.7890357460123,-38.0535495271864,-37.3024202316024,-36.5364939606664,-35.7562714990532,-34.9625532102742,-34.1558530165795,-33.3633159081535,-32.5306531074985,-31.6874908161526,-30.8346867496662,-29.9734889846462,-29.2030949856655,-28.3687754821679,-27.4844499071894,-26.6232743978102,-25.7645293852323,-24.8611638203709,-23.9876007789648,-23.3013660371431,-22.4755871597549,-21.757432044491,-21.1225717713819,-20.5036984157873,-19.773597296474,-19.3059610302788,-18.7212869458082,-18.1866362885127,-17.3981515188889,-16.6011896987615,-15.7667023324446,-15.056936936625,-14.3355208631428,-13.4993803471222,-12.8239371297217,-12.1729763956707,-11.6918159009395,-11.5143554276041,-11.1626854103969,-10.9852081405935,-10.4004823843947,-10.2725616432916,-9.85403491236619,-9.84916562628106,-9.68157963370146,-9.32049117715004,-9.03195221985483,-8.91755638768367,-8.69069672003081,-8.54674766138966,-8.3439636355218,-8.2476777090137,-7.93025788437542,-8.30100991647908,-8.0723525021863,-8.37757942805111,-8.15136181389519,-7.83049542259853,-7.65996469968072,-7.9690042429961,-7.89575100012234,-7.87354248590335,-7.75463681898877,-7.85610253616919,-7.43203662840875,-7.39111997259338,-7.14531052318943,-6.98414139800391,-7.00409992154957,-6.94513781701866,-6.89808540603521,-6.88240764284208,-6.76918444326337,-6.66525453165121,-6.59359621869651,-6.53265742089882,-6.50781898775539,-6.491392196304,-6.52373787061819,-6.52102341571564,-6.49950857300203,-6.45439457155785,-6.45728344326502,-6.47493094686371,-6.43313780607008,-6.49002378717373,-6.49993079283632,-6.35445657259414,-6.30345194052236,-6.36156627733198,-6.23369992715611,-6.33378856478812,-6.22346077417355,-6.11973856986707,-6.01646567345137,-5.9598071138765,-5.90535903144601,-5.8823896867147,-5.82098654682243,-5.68551855258003,-5.6596137663257,-5.63316048101084,-5.60574139349785,-5.59942472357239,-5.56689294823362,-5.54856995782686,-5.54446623236738,-5.59193526564682,-5.60992029788187,-5.55755237200195,-5.55710811432316,-5.6640877382631,-5.7043363328458,-5.73964516152928,-5.81719339076571,-5.82479547585783,-5.78261967780143,-5.7368038014785,-5.78775225501556,-5.77733090525323,-5.76430243497191,-5.77095227576945,-5.73401272265654,-5.67149389726973,-5.63623701453117,-5.5373096305607,-5.5069090371356,-5.35500314403531,-5.21918761839076,-5.11849443331077,-4.99932404625908,-4.80292628121854,-4.6495379306291,-4.52960268631056,-4.42349033590304,-4.3213686020741,-4.22110198676965,-4.16642966961428,-4.10186718931331,-3.95452720389596,-3.92991305730693,-3.92445389789483,-3.92732346345806,-3.91659891605129,-3.91866492124867,-3.88354019142723,-3.87198185290108,-3.90800189575586,-3.93514925626816,-4.03784413674277,-4.05718840502977,-4.0883948513042,-4.10177619419121,-4.09155351814804,-4.05773681397398,-4.06870306357765,-4.03077488581986,-3.9632472243905,-3.88765998987219,-3.85079036970043,-3.78315407962628,-3.71810414410019,-3.58960730207897,-3.46898691142867,-3.35358486954568,-3.25619585228291
-75.0648663974372,-75.3630007720215,-75.7228849571207,-76.1481942460927,-76.6393180836239,-77.1937792248077,-77.8063276081381,-78.4695638570147,-79.1741973927163,-79.9097873583476,-80.6650670192724,-81.4286981165476,-82.1895567719012,-82.9374009333848,-83.6630268428682,-84.3587724366672,-85.0184846894139,-85.6378194372324,-86.2140018497573,-86.745927199994,-87.2337405975925,-87.6787846835234,-88.0830616904054,-88.4491046208849,-88.7794074507448,-89.0763102091844,-89.3414875119356,-89.5759327288278,-89.7795805542834,-89.9514525213952,-90.0894591379999,-90.1907330927485,-90.2516166008328,-90.2681667164051,-90.2362915475984,-90.1523720291626,-90.0134744098028,-89.8180020966881,-89.5658880701576,-89.2591748575597,-88.9020840516258,-88.5014256053615,-88.0664545551255,-87.6090333540409,-87.1432174722473,-86.6851341902096,-86.2522853285437,-85.8631578002427,-85.5362870265124,-85.2896711508005,-85.1396942671147,-85.1004682543845,-85.1827609312533,-85.393426849578,-85.7345118398334,-86.202947229737,-86.7900003085482,-87.4813880774245,-88.2572076214834,-89.0925727406974,-89.9580890172763,-90.8210326858334,-91.6463389686501,-92.3982375604748,-93.0416133335093,-93.5439038357324,-93.8765884872872,-94.0170622966852,-93.949936058708,-93.6685499556768,-93.1757446557282,-92.4846876566421,-91.6188187575205,-90.6117409719138,-89.506157433712,-88.3527242124897,-87.2079684767599,-86.1321940095338,-85.1865763620676,-84.4304205626748,-83.9178298229557,-83.6947967569941,-83.7959939711059,-84.2422914818829,-85.0382794891443,-86.1708101845967,-87.6078074670933,-89.2983130973695,-91.1729587678548,-93.1457610741564,-95.1163480596466,-96.9734278440888,-98.5985199914814,-99.8706750575798,-100.671125468683,-100.88852774933,-100.42369006419,-99.1944156934785,-97.1393495166167,-94.2214754337937,-90.4301938279107,-85.7826929875045,-80.3236314919106,-74.1239519676189,-67.2779638222128,-59.8996446353047,-52.1174295554989,-44.0685659510451,-35.8924192833564,-27.7239065706323,-19.6865190515444,-11.8861575130135,-4.40525659867548,2.70159849286483,9.41114212685064,15.732871682463,21.7091649961947,27.4131067008423,32.9448932739813,38.4260341217748,43.9924057174641,49.7855590091076,55.9435064145473,62.5905353383988,69.82739042958,77.721449541922,86.2982703034384,95.5341200518467,105.350805556962,115.612307444808,126.124383812364,136.636457463203,146.846729823669,156.409592971938,164.946029015036,172.055815220586,177.331983880382,180.376139559849,180.814902390492,178.315944733785,172.603807235168,163.473937044949,150.805170545179,134.569200522764,114.837405226548,91.7837865726258,65.6846461906151,36.9140312337292,5.93588441561007,-26.7077564125216,-60.4112677264003,-94.5230269517467,-128.364581811822,-161.251562797439,-192.514691643932,-221.520955823278,-247.693278244947,-270.528796520046,-289.614191566921,-304.638351885276,-315.401038973029,-321.818109529415,-323.922260805696,-321.860173793241,-315.885343687369,-306.347785252041,-293.680191767492,-278.381988436584,-261.001065693455,-242.114785331141,-222.310136588042,-202.164663656762,-182.228007239096,-163.005586943657,-144.944117870865,-128.420292138902,-113.732085627712,-101.093761735692,-90.6337595553221,-82.3962637321994,-76.3453791807491,-72.3724651070751,-70.3053399210491,-69.919739198747,-70.9516113304485,-73.1105552052505,-76.0929573459369,-79.5951553375832,-83.3252540940623,-87.0140325207124,-90.4237126928116,-93.3552015263901,-95.6527674320424,-97.2069609371947,-97.9549401246487,-97.8791987446565,-97.0040292493072,-95.3908657345734,-93.1319565404181,-90.343595648649,-87.1584114459132,-83.7179552224315,-80.165067037366,-76.6372091526672,-73.2601654995964,-70.1431964788385,-67.3749309097227,-65.0209584158934,-63.1222751348337,-61.6954203988229,-60.7333405931653,-60.2077150089396,-60.071694841929,-60.2637257012957,-60.7113625804633,-61.335728185539,-62.0555261875344,-62.7912833205142,-63.4687727924563,-64.0223484795857,-64.3972088619302,-64.5513936347669,-64.4566083723152,-64.0987556865674,-63.477339323238,-62.604683210861,-61.5041855318321,-60.208591728934,-58.7575356069783,-57.1953483517962,-55.5683876402287,-53.9228776638367,-52.3024926085332,-50.746645921217,-49.2886825956932,-47.9548968703126,-46.7635302210178,-45.7246294231242,-44.839878642014,-44.1032478147525,-43.5015385945042,-43.0156433238528,-42.6215781176914,-42.2920922933952,-41.9979089863054,-41.7093996513161,-41.3977539164916,-41.0364595291713,-40.6021703988202,-40.0757974935682,-39.4429230121761,-38.6943963199636,-37.8262360613659,-36.8397202010714,-35.7408100528553,-34.5398093086043,-33.250420369949,-31.8891117387785,-30.473967686444,-29.0239388793217,-27.5576660912523,-26.0927927147183,-24.6449316323752,-23.2271923885124,-21.8494217562324,-20.5180490811946,-19.2356735153518,-18.0012678286857,-16.8101192392289,-15.6543660149469,-14.523235771215,-13.4038317300374,-12.2815629235168,-11.1410576125232,-9.96665211774361,-8.74329387341073,-7.45695372417872,-6.09539218716673,-4.64838335794799,-3.10825211511225,-1.46984092926056,0.269224405870655,2.10883981891762,4.0464158501848,6.07741553277998,8.19554346634418,10.3934345721767,12.6629426767429,14.9958742173263,17.3842669762161,19.8210617857103,22.3002724272504,24.8175092906931,27.3699714675486,29.9567735521232,32.5787331649138,35.2384968016545,37.9401407154373,40.6891339204309,43.4918078155286,46.3552252380418,49.2865968528125,52.2931386744591,55.3815172336534,58.5577725815219,61.8268601242656,65.1926944416738,68.6578279861177,72.2236391744253,75.8901541026209,79.6563682043536,83.5201848179558,87.4788310224103,91.5288633362573,95.6666210380233,99.8882389378219,104.190078389424,108.568691053542,113.021178299414,117.545065965623,122.138563336536,126.800332404768,131.529642625051,136.32604321823,141.189433538842,146.119667930126,151.116578807977,156.179556370463,161.307569351234,166.498764628647,171.750528364813,177.059143742419,182.419924433382,187.826954763815,193.273311289659,198.750892257368,204.250725334913,209.762876124735,215.276824417733,220.781427939525,226.265338538404,231.71698934791,237.125017445068,242.478240859746,247.766055459503,252.978372154894,258.105962014361,263.140332153792,268.074002643366,272.900310065866,277.613610744928,282.209011963668,286.682506707191,291.030642527202,295.250602051933,299.339827404886,303.296067372583,307.116980540024,310.800173822524,314.342809835837,317.741662397545,320.992753117197,324.091447548502,327.032142723044,329.808423103278,332.412815066767,334.837015011562,337.071719045205,339.10692704276,340.931846632306,342.535267453505,343.905528844183,345.030949011729,345.899836752636,346.500951966796,346.823534582425,346.857767128576,346.594790063585,346.027135139663,345.148696535638,343.955106248951,342.443635258348,340.613489251098,338.465623180138,336.002946552826,333.230047058951,330.153307879079,326.780549668442,323.121075739489,319.185254264024,314.984518347838,310.530919512079,305.837116436995,300.915934733048,295.780379029705,290.443231801542,284.917118153268,279.214168286694,273.346153676977,267.324225147649,261.15912517761,254.860998963867,248.439673124776,241.904523514488,235.264798532337,228.529517575082,221.707809959113,214.808813714641,207.842000142019,200.817044856195,193.74411320337,186.633683311062,179.496777574119,172.344728962129,165.189356094955,158.042676453667,150.917034325351,143.824775028361,136.778343614791,129.789940545501,122.871612809057,116.034912599962,109.291001054527,102.64626190133,96.1197304166413,89.7152838834821,83.4412118901501,77.3048255233622,71.3126778550402,65.4703156087743,59.7825246918177,54.2531019359166,48.8851156233681,43.6806874982277,38.6412595982552,33.7673796755717,29.0589698024542,24.5151132550269,20.1343255288866,15.9143456468997,11.8524143856046,7.94507597912374,4.18846990587666,0.578148866208219,-2.89061129699664,-6.22297481998845,-9.4242180711402,-12.4998770937841,-15.455407903747,-18.2963276449736,-21.0278750549676,-23.6551591619672,-26.1828350308425,-28.6152753391626,-30.9562759387776,-33.209263024927,-35.3770384720874,-37.4620290205919,-39.4660737155152,-41.3907130451571,-43.2370120143158,-45.0058786510011,-46.665592239027,-48.2808872424471,-49.8206580863302,-51.285595868206,-52.6763752578557,-53.9940147846736,-55.2396210046307,-56.4147154480649,-57.5209433455554,-58.5603653304121,-59.5351333463965,-60.4477539737553,-61.3007420646385,-62.0968691011075,-62.8388098271623,-63.5293916493152,-64.1712498609947,-64.7670921539417,-65.3193739851194,-65.8305864318296,-66.3029560650348,-66.7387563769576,-67.1400282919446,-67.5089075378359,-67.8473550193115,-68.1574870568675,-68.4413012620518,-68.7009951147487,-68.9386737777073,-69.1566454904378,-69.3571027785593,-69.5423898283231,-69.71465643644,-69.8761010724449,-70.0286055094888,-70.1739653182067,-70.20342468102,-70.3384521375728,-70.4693699233836,-70.5964036162079,-70.6355445651504,-70.759880195236,-70.8758740417139,-70.9818550963873,-71.0756843835802,-71.1551033421978,-71.2175323087669,-71.2604428409669,-71.2811723776747,-71.2773038254379,-71.2464779453376,-71.1867610772656,-71.0964365967871,-70.9743437051052,-70.7967900874556,-70.6109146139234,-70.3587462507613,-70.1086579334275,-69.8275386280017,-69.5167168392552,-69.1776465263281,-68.8121080357554,-68.4218407479276,-68.0087393789144,-67.5744912071757,-67.1207856550436,-66.6489724996587,-66.1602987358537,-65.6555986386441,-65.1355651104194,-64.6004748311564,-64.0504932956404,-63.4854303977776,-62.9050710330881,-62.3089500965956,-61.6966954569505,-61.0678078240833,-60.4220010733179,-59.7589723534093,-59.0787263420419,-58.3919350060027,-57.676763488843,-56.945320752687,-56.1984825911157,-55.4371661185512,-54.7226568444535,-53.9671192751732,-53.1673605025196,-52.375652957829,-51.570932746809,-50.7063024456128,-49.8938494276368,-49.1368044028101,-48.3322862337047,-47.6072856143214,-46.8054749394461,-46.1337611680076,-45.4055422633539,-44.7875700598897,-44.0738542714441,-43.3765899313295,-42.5477369334001,-41.6546152593289,-40.8144702875412,-40.0385861790342,-39.2261050552032,-38.3661391342767,-37.5811418923942,-36.7690784086614,-36.0130173383081,-35.4017514166235,-34.6821983157249,-34.0731900595487,-33.2558041645305,-32.8259543232822,-32.1185958047834,-31.7659105955293,-31.4904265865215,-30.7870545176446,-30.3155056746524,-29.8737517889042,-29.3391634925554,-28.8257755093114,-28.4204327281582,-27.9580362453462,-27.4430196340752,-27.2769442946475,-26.7575686769283,-26.7197872982725,-26.2493041105645,-25.5710936189632,-25.0742819407328,-24.8281043035252,-24.4249522516661,-23.9914744307191,-23.6383472569063,-23.3794393147001,-22.7451296234187,-22.4853313278537,-22.0140735440972,-21.5797951960716,-21.2994369502517,-21.0522698991556,-20.8182579383885,-20.457506872226,-20.1242486668494,-19.8050633456318,-19.4527877602968,-19.1723441188767,-19.0185281583091,-18.8057343601702,-18.5901691313482,-18.3679997576249,-18.1365149234939,-17.8664079819535,-17.6847728798406,-17.4520455405584,-17.1570807951803,-16.9107889158811,-16.6420769371852,-16.3431065570393,-16.1861007425775,-16.1312531408111,-15.8307389429257,-15.6538024636848,-15.4184791276504,-15.1881547434116,-14.9528996898392,-14.7555891640767,-14.5632558421698,-14.4307876793669,-14.2934803735428,-14.0240460998134,-13.8495437233445,-13.694515177163,-13.5813913114613,-13.5137688300544,-13.3646060701948,-13.2127375938134,-13.0770551166051,-12.9892117487799,-12.8939105141346,-12.7476984215094,-12.597558251804,-12.5171751586135,-12.4320898787949,-12.299364165219,-12.2714059562621,-12.1601634716275,-11.984229041949,-11.8824891256486,-11.8466668553563,-11.7885409935401,-11.6959826494372,-11.5433634287255,-11.389528211678,-11.2522537574548,-11.153563658757,-10.9431219529101,-10.7529570349486,-10.5340353590941,-10.3290919277888,-10.1557730883816,-9.92578244998928,-9.59566822224178,-9.3473241518064,-9.10276583242084,-8.91576709493762,-8.79463869506936,-8.63005515941585,-8.49882355021763,-8.36082889840492,-8.13439625616765,-8.03513941281051,-7.9186988276146,-7.85836790377776,-7.77596963723291,-7.65403225079277,-7.58421717766691,-7.55008275024768,-7.54088203644001,-7.49490855298237,-7.49313642408917,-7.43219817044509,-7.43855780206156,-7.37516125873274,-7.30227635171333,-7.22189781270578,-7.22361319833516,-7.16667784806369,-7.01516913074464,-6.9209779704989,-6.8780937619575,-6.76168463595148,-6.63516404105002,-6.42020058423964,-6.2920097093176,-6.09876150445471,-5.95554012080525
-72.4313762676639,-72.6770758672636,-72.9821643778441,-73.3506006798264,-73.7835955121693,-74.2796956001583,-74.8352374264175,-75.4446053196522,-76.1008135417497,-76.7958413340753,-77.5212378542932,-78.268426346796,-79.0292279753204,-79.7960410713346,-80.5622051736278,-81.321996564707,-82.0707969819524,-82.8048951226677,-83.521475365384,-84.2182651282403,-84.8934054255317,-85.5450238960183,-86.1710799431272,-86.7689632430183,-87.3354140079902,-87.8662418279452,-88.3564041073259,-88.7999110317134,-89.1901062420971,-89.519777043635,-89.7816297094433,-89.9685703671879,-90.0743147423287,-90.0937567271256,-90.0236109168079,-89.8627538236365,-89.6127768589179,-89.2781771123735,-88.86670369502,-88.3892935247056,-87.8601250018391,-87.2962364877993,-86.7172528280191,-86.1446827161027,-85.6013463940963,-85.1104123714841,-84.6946174561133,-84.3751618112821,-84.170863986471,-84.097075389148,-84.1649435765834,-84.3805246389014,-84.7443310454059,-85.2508083530786,-85.8883164881978,-86.6390947597153,-87.4797688386202,-88.3818586231655,-89.3128228265273,-90.2370753763423,-91.1174850393276,-91.9167692837526,-92.5992710822167,-93.132509394576,-93.4889752881822,-93.6475522826599,-93.5950263069162,-93.327063729391,-92.8491298365274,-92.1767407417398,-91.3355432688297,-90.3606453665972,-89.2957279431148,-88.1914027416652,-87.1033934697871,-86.0900535313249,-85.2098465133286,-84.518349475298,-84.0654470314675,-83.8923106019617,-84.0288550961969,-84.4912793362775,-85.280380206159,-86.3802290445986,-87.7578663629664,-89.3635535905847,-91.1321732861192,-92.9852390393317,-94.8340190662461,-96.5831410220953,-98.1350864506621,-99.3948498152438,-100.275086133452,-100.700951154574,-100.614905440179,-99.9806563818505,-98.7865059520403,-97.0473034904049,-94.8053266034559,-92.1293744746427,-89.1125094893826,-85.8678686479172,-82.5231371736284,-79.2132752096078,-76.072264782514,-73.2236396404658,-70.7707249237557,-68.7864882006834,-67.3040383891188,-66.3077466553651,-65.7260550430898,-65.425928220939,-65.209944910448,-64.8158644587112,-63.919496674858,-62.1404981436142,-59.0516741932263,-54.1911334135613,-47.0775813889138,-37.2278044391165,-24.1763438406674,-7.4961488278205,13.1800165139191,38.1387999650376,67.5664618664525,101.53148392467,139.969898503529,182.6746673024,229.289240112909,279.306368740677,332.071988638192,386.794871911698,442.561453477196,498.356100182028,553.085785694411,605.609015735565,654.767573872661,699.420590645658,738.479231688265,770.941314287566,795.924046734881,812.694197633643,820.693989064346,819.562220494174,809.149211092903,789.525444704168,760.982951738261,724.029810391236,679.377330888324,627.92084389725,570.71418218474,508.939266323823,443.871316485053,376.841458724934,309.197514616865,242.264907157781,177.308527008198,115.497435702618,57.8730847961888,5.32266119003301,-41.4421181859125,-81.8995815134472,-115.726208078383,-142.797602229076,-163.183025712631,-177.133343870435,-185.063561826925,-187.530239408584,-185.205324566425,-178.846974312768,-169.269090055289,-157.310224792536,-143.803577811698,-129.548626764597,-115.285916301444,-101.675278950587,-89.2786697230429,-78.5475054657031,-69.8152768824043,-63.2949005174578,-59.0811632392325,-57.1573369664773,-57.4059681464907,-59.6226264835069,-63.5323892834404,-68.8076898884434,-75.0872261848463,-81.9945529260849,-89.1561214053436,-96.2175236008631,-102.857894425102,-108.801464764961,-113.826487204988,-117.770814437211,-120.534644779677,-122.079999157625,-122.427707794964,-121.651703499803,-119.871592255298,-117.24344393968,-113.949869347259,-110.189369919733,-106.166019168922,-102.079407643607,-98.1158139347584,-94.4404022465569,-91.1912511805881,-88.4748389654897,-86.363606385764,-84.8950403079479,-84.0727263173067,-83.8686577488804,-84.2271173633106,-85.0693147354246,-86.299022468995,-87.8083535741587,-89.4839144625745,-91.2124974469873,-92.8865957577988,-94.408976240801,-95.6966816610108,-96.683798750187,-97.3234712072812,-97.5886017567341,-97.4718258894846,-96.9842956443283,-96.1539373377493,-95.022787037611,-93.644115403872,-92.0789748174487,-90.3928910600197,-88.6523256056877,-86.9216081721374,-85.2599295739328,-83.7190478939513,-82.3412438228099,-81.1581195710093,-80.189717246942,-79.4444926661178,-78.9195660991688,-78.6017377144086,-78.4686488384995,-78.4905453803205,-78.6320027483198,-78.8540565930951,-79.1160961950674,-79.3779711623557,-79.6016824620892,-79.7531293085847,-79.8033090630776,-79.7294715967624,-79.5156574933285,-79.1531545860414,-78.6403346827581,-77.9824356226134,-77.1907782339937,-76.2820072000212,-75.2768646877722,-74.1990999446608,-73.074032524329,-71.9273756686736,-70.7838354598301,-69.6660851514132,-68.5936185859342,-67.5820664472194,-66.6424604097645,-65.7810077789282,-64.9988391676698,-64.2922689142459,-63.6530085140737,-63.0688520683604,-62.5242557698607,-62.001315390038,-61.4805525828406,-60.942007040236,-60.366042906608,-59.7343686337027,-59.030685202929,-58.2414723996324,-57.3563419713943,-56.3684839181684,-55.2746530964667,-54.0752415690027,-52.7739029122685,-51.3772918221898,-49.8944011192278,-48.3360725816193,-46.7141733753346,-45.0410203266491,-43.3285455588,-41.587783437064,-39.8281662185731,-38.0571988385758,-36.2799879430379,-34.4991812926718,-32.7147771694963,-30.9243441520817,-29.1230957353182,-27.3043464339493,-25.4597822662949,-23.5800633999246,-21.6551861202274,-19.675119497336,-17.6301448431241,-15.5114174159163,-13.3111853362905,-11.0231943220087,-8.6427240105922,-6.16679624153381,-3.59401306581791,-0.924576382125725,1.84004262567355,4.69722361782632,7.64363199203319,10.6754036708488,13.7886032632424,16.9793915094058,20.2444285928902,23.5809543577845,26.9870787636379,30.4617315052648,34.0048126395,37.6170017464762,41.2997756544426,45.0550995779412,48.8853477819885,52.7929231883755,56.7801349129863,60.848804273423,65.0001576692258,69.2344747174964,73.5510465414203,77.9479080256332,82.4218936284226,86.9684748627215,91.5819232804552,96.2552515811429,100.980471730332,105.748618526233,110.550074246411,115.374640584206,120.211892333441,125.051258882182,129.882368764817,134.695104935771,139.479908269401,144.227779680079,148.930521390136,153.580670878152,158.171671128074,162.697733621261,167.1539403101,171.536043265283,175.84051007241,180.064275079265,184.204745561901,188.259523518169,192.226392425061,196.103029651686,199.88699361812,203.575445968577,207.165157292314,210.6522560032,214.032268173114,217.299907118613,220.449159647847,223.473126790461,226.364164836255,229.113783303442,231.712844328126,234.151518626676,236.419540928108,238.506218333043,240.400732741894,242.092189052329,243.569948581962,244.823697882452,245.843791109433,246.621315155543,247.148415169206,247.418329613859,247.425672979815,247.166416363274,246.638105653312,245.839769705074,244.772060871482,243.437083271573,241.838454407922,239.981058840629,237.871042782494,235.515511325211,232.922479745297,230.100542611444,227.058813452709,223.806599223811,220.35336199216,216.708430892359,212.88101476931,208.879975830683,204.713911419773,200.391000508476,195.919158092259,191.305950168976,186.558808799763,181.684996697246,176.691858238555,171.586804536364,166.37756854876,161.072177892416,155.679182314158,150.207585339587,144.667019670183,139.067619061195,133.42012986069,127.735718720546,122.026023372897,116.302906401863,110.578461821761,104.864736635717,99.1737186305042,93.5170531554014,87.9060398316257,82.3513707946526,76.8567554890499,71.4449730184725,66.1175230877727,60.8821019605548,55.7456076806044,50.7140425001632,45.7926427875366,40.9858123579017,36.2972744006215,31.7300175577485,27.2864516773028,22.968349827611,18.7769937007444,14.7131010187849,10.7769543420933,6.96831221348523,3.28652421186018,-0.26956730225743,-3.7015158043178,-7.011366020909,-10.2015330652269,-13.2748822551088,-16.2345876800157,-19.0841881443386,-21.827420603244,-24.4682519845826,-27.0106918088001,-29.4588086352329,-31.8165345415544,-34.0876819657537,-36.2757578082578,-38.3839991347188,-40.4152146913466,-42.3718552275689,-44.2558949205362,-46.0689445406214,-47.812176026952,-49.4864764075716,-51.0924081483252,-52.6040153131009,-54.0740685044056,-55.4769199902081,-56.8128781597427,-58.0824064526937,-59.2861264780222,-60.4249246257646,-61.4999212067209,-62.5125399256564,-63.464439448082,-64.3575475807959,-65.1939623285383,-65.9759624508923,-66.7058933309679,-67.3861716593922,-68.0191748898866,-68.6072583703573,-69.1526648082712,-69.6575670781154,-70.1240066799133,-70.553966233179,-70.9493356201118,-71.3120076042614,-71.6438603175758,-71.946860735118,-72.2230454773127,-72.4746127523934,-72.7038822565978,-72.9133580868053,-73.1056534125825,-73.2835144503455,-73.4497053614805,-73.6069946761911,-73.7580078888897,-73.9051895955475,-74.050642126663,-74.074627888259,-74.2202457993065,-74.3677027851999,-74.5170018224903,-74.5991882817689,-74.7558741543825,-74.9086126995135,-75.0549232104771,-75.1919409123673,-75.3164554644393,-75.4250987724021,-75.5144135586763,-75.5810587189602,-75.6218815891159,-75.6341126595827,-75.6154132387693,-75.5640328276787,-75.4788087039769,-75.3482470964527,-75.1964751500604,-74.9664113053216,-74.7498924884045,-74.5032922721955,-74.2287817659575,-73.9288458190908,-73.606091465303,-73.2631854442473,-72.9026649567431,-72.52689080495,-72.137885818819,-71.7373258027753,-71.3264234562857,-70.9059696853314,-70.4762697508148,-70.0372356569888,-69.5883693843048,-69.1288958623338,-68.6577782497244,-68.1738729518367,-67.6759561144706,-67.1628788556646,-66.6335834483447,-66.0872387788834,-65.5232288594805,-64.9470852673188,-64.3465753656831,-63.7283262508532,-63.0929061259868,-62.441154880846,-61.8065284143392,-61.137583208888,-60.4413850339468,-59.7497001563564,-59.0288727181451,-58.2443157932471,-57.5450273018682,-56.8105230668504,-56.0923970868684,-55.4764051798212,-54.6773760189721,-54.0420839561179,-53.3514068551611,-52.7276783700475,-52.0291052947358,-51.3475170480774,-50.5632212039913,-49.7921098232391,-49.0078244670955,-48.3102963132666,-47.460136080988,-46.628620925568,-45.7926337398496,-44.9568103505483,-44.1095787893384,-43.4851410373093,-42.6738068513139,-41.9080774524147,-40.9884911533599,-40.5941464216382,-39.7659586536454,-39.0519719573414,-38.5244317086776,-37.70755029715,-37.1451377743574,-36.6305058374266,-36.0090999542378,-35.2310761813698,-34.7875412592234,-34.2516033244844,-33.6556530474593,-33.2770379164891,-32.707837014426,-32.3638635519878,-31.8009464545973,-31.1259145237688,-30.7003609880237,-30.1276053432818,-29.5731257199446,-29.156886343971,-28.7438588632188,-28.3062519408309,-27.5999669744718,-27.2616095732422,-26.7483603018635,-26.2225950180551,-25.8219174092951,-25.5444820281725,-25.2275787924873,-24.857104182978,-24.5055160980311,-24.1003175817541,-23.6550783118481,-23.3592075936203,-23.1071722337428,-22.8348650799114,-22.5563789549534,-22.3024370501008,-22.010961742049,-21.7509884204894,-21.4830736357097,-21.1094594312085,-20.7246442038621,-20.3260709180292,-19.8631890761004,-19.4476160526131,-19.225474515428,-19.0672933439096,-18.726352660728,-18.4515133572571,-18.1647775671873,-17.8842373462692,-17.5953641747591,-17.3399780173053,-17.1067283673132,-16.9234526460176,-16.7430080312106,-16.3935453343953,-16.1742065405723,-15.952539093014,-15.8356450961294,-15.7714496505452,-15.5705535416287,-15.3540055471493,-15.2013856039472,-15.0932663457261,-14.9495585067599,-14.7662748642813,-14.5101750056742,-14.460716259709,-14.3574115172109,-14.243341794286,-14.1635895138679,-14.0142573994864,-13.8756369558675,-13.7476214497332,-13.6432755089362,-13.5607036619388,-13.4377904959696,-13.2240860009979,-13.0561360197995,-12.9179472157449,-12.7680134940055,-12.5136737763349,-12.2668400080881,-12.0226112885903,-11.7718257929717,-11.5632659858794,-11.3098552208432,-11.0367866610362,-10.7422619535876,-10.4366292273544,-10.1746634194079,-10.0350659562142,-9.82623674578536,-9.69514129583943,-9.51463602305743,-9.22600698015798,-9.1091947343219,-8.96944107136487,-8.87330962579429,-8.77601742490833,-8.58993410476134,-8.51616623760004,-8.45574364866629,-8.4360435815979,-8.37909537330732,-8.33232334892208,-8.22688965415442,-8.20053452961327,-8.12215437005825,-8.03658034667951,-7.88558122496281,-7.89255860719999,-7.82447075869657,-7.64526857632226,-7.55284373677965,-7.5028703748619,-7.36682903958492,-7.22144150426234,-6.99166259628538,-6.86294299608067,-6.64963697304583,-6.49683357211421
-68.1215079487446,-68.2411523959794,-68.4324135595346,-68.7017036983635,-69.053149427201,-69.4882704827646,-70.006610886552,-70.605567617271,-71.2811348441736,-72.0278036030833,-72.8393324251502,-73.7086291372982,-74.6284625669706,-75.5912502985083,-76.5896494890205,-77.6162069940466,-78.6638070922475,-79.7251847792602,-80.7932542937722,-81.8605310950988,-82.9194053577532,-83.9615511408758,-84.9782323028483,-85.9597891009411,-86.8960630196905,-87.7760370598352,-88.5884394785727,-89.3215763436571,-89.9641273972283,-90.5051562843645,-90.9350554085625,-91.2456632158242,-91.4312627680689,-91.4886906407026,-91.4182595187625,-91.2237217894055,-90.9129797791143,-90.4977762556757,-89.9940810223957,-89.4214208490305,-88.8028850263988,-88.1640723069814,-87.5327311922839,-86.9373791782221,-86.4066719346302,-85.9678252258349,-85.6458750097798,-85.4620894500266,-85.4333250236361,-85.5706425555164,-85.8789725418862,-86.3561377995347,-86.9930101908384,-87.7730923895046,-88.6732804569865,-89.6640740281916,-90.7109633924362,-91.7752324543156,-92.8158787927194,-93.7908626137736,-94.6593606613197,-95.383214903826,-95.9292343576102,-96.2705274446746,-96.3885169935285,-96.2738159209213,-95.9276237517689,-95.3618377480476,-94.599562214755,-93.6742405232097,-92.6291308897479,-91.5153936078733,-90.3905582482822,-89.3156886077377,-88.3530645887052,-87.5627477640896,-86.9998946274545,-86.7112223993494,-86.7325202846002,-87.0856283613908,-87.7767806568384,-88.7947229721397,-90.1104740659113,-91.6770961342813,-93.4312823453588,-95.2950516132656,-97.1792699403123,-98.9871905217366,-100.619628324357,-101.979856728422,-102.979741523557,-103.545109102861,-103.621788629084,-103.180270059653,-102.220388216799,-100.773974559677,-98.9069188557189,-96.7186481870195,-94.3405650067014,-91.9315832166403,-89.6724640640392,-87.7572742653644,-86.3838681528522,-85.7419246267008,-86.000648185157,-87.2948614064147,-89.7117735962672,-93.2772972154929,-97.9443005041581,-103.581722971002,-109.966942158832,-116.780259001739,-123.603769673982,-129.923310485144,-135.135506471287,-138.558323112775,-139.446824164551,-137.012178605427,-130.44524832943,-118.94242862507,-101.734718744816,-78.1173733678943,-47.4808399905498,-9.34012435495859,36.6368435892616,90.6047475902354,152.519708251001,222.124154215123,298.936886803365,382.250775901198,471.136827962707,564.456593088012,660.881131633329,758.917956880503,856.943615367519,953.242776890542,1046.05098857332,1133.60151727639,1214.1730668037,1286.13852358738,1348.01135796247,1398.48979614067,1436.49547681506,1461.20691909259,1472.08484607954,1468.89012886039,1451.69192493211,1420.86737712534,1377.09109642196,1321.31646624513,1254.74765827201,1178.80503193214,1095.0833841862,1005.30621659186,911.275879132441,814.823032787933,717.755436477275,621.809512294173,528.604572758267,439.602914319372,356.075294855402,279.074533459405,209.416204770571,147.668564658614,94.1500476117611,48.9358367673022,11.8712332325932,-17.4072412364285,-39.445779467421,-54.9417382453414,-64.7096813235276,-69.6446887564024,-70.686092080369,-68.7812721115307,-64.8525324600785,-59.7664385995708,-54.3083021534443,-49.1607975316877,-44.8889382188428,-41.9299188638909,-40.5895623442391,-41.0434036239489,-43.3437085503684,-47.4300689322578,-53.1445464291811,-60.2487566952608,-68.4436991678163,-77.3896426480619,-86.7268757596279,-96.0947165399026,-105.149746836348,-113.580884048512,-121.12252286868,-127.563660705062,-132.754559422439,-136.609180531968,-139.105258667118,-140.280538030654,-140.227288015031,-139.083828625121,-137.025335811002,-134.252755377031,-130.982136732244,-127.433201124733,-123.819390599621,-120.338102615923,-117.163210209224,-114.438398906331,-112.273229156148,-110.740257140169,-109.874927024886,-109.676383548262,-110.110753687832,-111.114908094411,-112.602143692402,-114.467724584592,-116.595684017093,-118.864820130193,-121.155315791419,-123.353971062391,-125.359557931948,-127.086383147929,-128.467677982652,-129.45701574136,-130.029490641978,-130.180967997725,-129.927238000408,-129.30146735721,-128.351848164309,-127.137886300216,-125.727256945781,-124.191678195405,-122.603720685564,-121.032978118865,-119.543476688292,-118.19069752661,-117.020031852538,-116.064980347005,-115.346852806103,-114.874217931452,-114.643802213215,-114.641037440592,-114.841913917434,-115.214306643052,-115.72040949118,-116.31843295772,-116.965198844558,-117.617795080339,-118.235939918141,-118.783241523062,-119.22903046588,-119.548983303703,-119.726249223384,-119.751333114971,-119.622481488217,-119.344856945744,-118.930276709358,-118.395825758737,-117.763139927807,-117.056683838478,-116.302827509785,-115.528049118535,-114.758064604479,-114.01620307545,-113.322815367671,-112.694017289854,-112.141534260129,-111.671925977037,-111.286933754608,-110.983204972695,-110.753114040271,-110.584913061414,-110.463913226086,-110.372915402057,-110.293580501605,-110.206952316073,-110.094822451876,-109.940153910152,-109.728261296798,-109.446976559207,-109.087513894696,-108.644280833354,-108.115368723671,-107.501989648116,-106.808612416311,-106.042082476604,-105.211493700211,-104.327108924312,-103.400105426741,-102.441446261272,-101.461653378851,-100.469779050735,-99.473343292686,-98.47752232444,-97.4853417541356,-96.497143838167,-95.5110660758622,-94.5227842596033,-93.5262421214157,-92.5136075125509,-91.4761666959953,-90.4043892679606,-89.2888713290579,-88.1203890333604,-86.8907732187261,-85.592843500196,-84.2211214798955,-82.7715724861491,-81.2421078914306,-79.6321104138545,-77.9427272638371,-76.176205436913,-74.3360243415577,-72.4261082857915,-70.450879739523,-68.4144389019301,-66.3206307147563,-64.1722823991353,-61.9713677868102,-59.7183746211775,-57.4126226507563,-55.0517992484094,-52.6324505253981,-50.1496849853064,-47.5978187010151,-44.9702112444602,-42.2600150832867,-39.4600832176589,-36.5637552754327,-33.5647663317992,-30.4580000674027,-27.2393336423904,-23.9063004558492,-20.4578238335776,-16.8947542162005,-13.2194696425596,-9.43627882289979,-5.55089294070946,-1.57071114141068,2.49580941066668,6.63895029869538,10.8484221020571,15.1131982755096,19.4222192487762,23.7642179001659,28.1283949266298,32.5041979417721,36.8819360457373,41.2524872550503,45.6078342252866,49.9406892901289,54.2449476712702,58.515232961508,62.7472763775366,66.9373960318899,71.082819348654,75.1811159880236,79.2304850392914,83.2291640526631,87.1757035085898,91.0683738371148,94.9054478999328,98.6846251968645,102.403339747744,106.058216880616,109.645419806123,113.160150113773,116.597041956003,119.949712920346,123.211210191603,126.373613803934,129.428534343505,132.366765621834,135.178828374104,137.85466419286,140.384214473355,142.75714238085,144.963431549062,146.993118646679,148.836892903653,150.485819430999,151.931919486429,153.167864979333,154.187521243014,154.985596653241,155.55813478593,155.902109681364,156.015862139219,155.89863998492,155.55098262846,154.974215148942,154.170794284348,153.143773259537,151.897129063421,150.435219784418,148.763115678563,146.886071008013,144.809879134492,142.54037615284,140.083833327154,137.446501049487,134.635041827694,131.656112245222,128.516828776825,125.224375105481,121.78648400587,118.211050226009,114.506606912492,110.681922229582,106.746449671004,102.709890349495,98.5826029789155,94.3751224893348,90.098525910611,85.7639094557514,81.3827182973922,76.9661954963713,72.5256935960081,68.0721167094393,63.6162372289384,59.1681547969704,54.7376406831103,50.333633486297,45.9768312609473,41.6507860253398,37.3744068127075,33.1539693718537,28.9953210319648,24.9035497927346,20.8834380793237,16.9391443546322,13.0746576245524,9.29346833978524,5.59900187488929,1.99425998848983,-1.51778103249166,-4.93456717586416,-8.25360655666068,-11.4729007559781,-14.5906127868786,-17.6055176130055,-20.5166784862655,-23.3238939339495,-26.0273584327634,-28.6280822634972,-31.1275151015633,-33.5279211101681,-35.831952966073,-38.0429758638127,-40.1645923847217,-42.2009226695267,-44.1560938728587,-46.0344959124406,-47.8402593658671,-49.577513569962,-51.2498809105527,-52.8607645733903,-54.4128840925717,-55.9086135603837,-57.3495738365129,-58.7370302342951,-60.0715434771021,-61.3342264717793,-62.5627600466087,-63.7382805244533,-64.8601558586858,-65.9278970104524,-66.9408981179403,-67.8989067845664,-68.8017395523861,-69.6497181346599,-70.4433440724751,-71.1836903291877,-71.8720305548637,-72.5101875114724,-73.1001240716736,-73.6442604866702,-74.1450429240649,-74.605247850374,-75.0275473913697,-75.4148196481251,-75.7697278476397,-76.095050512913,-76.3932843559907,-76.6669997026992,-76.9184677684264,-77.1500373906989,-77.3637786876547,-77.561869891639,-77.7462440645091,-77.9189718278152,-78.0818973459334,-78.237004824664,-78.3860343942661,-78.5308266367926,-78.6729168271648,-78.8138603725149,-78.9548125873416,-78.9274401050873,-79.0678829406557,-79.2104194343013,-79.3549054659706,-79.4237050535229,-79.5775161719939,-79.7286629259425,-79.87537663853,-80.0158267047582,-80.1478045840037,-80.2691732542256,-80.3775710505454,-80.4708732802449,-80.5468993819729,-80.6038684561914,-80.6400910086479,-80.6544004500605,-80.6458135091397,-80.5662908129465,-80.5127175745229,-80.3967479501843,-80.2971058031953,-80.1755536505236,-80.0329800258923,-79.8705925553686,-79.6894604408168,-79.4908119420445,-79.2755841720434,-79.0447372477816,-78.798828913822,-78.5383599707418,-78.2633845202291,-77.97389300161,-77.6694595802287,-77.3496594779766,-77.0137456428678,-76.6610885418922,-76.2908671358254,-75.9025140273461,-75.4954026339405,-75.0692797568654,-74.6239323282208,-74.1595931177069,-73.6765759714516,-73.1663905655036,-72.6478249676157,-72.1134103023784,-71.5643407630617,-71.0020868507089,-70.4340273748149,-69.85318565001,-69.2551768066444,-68.6419599884742,-68.0497238233724,-67.3493728668818,-66.7006695852294,-65.9895445154563,-65.3788539761408,-64.8209153161802,-64.0730626657162,-63.4457482399096,-62.7959319208829,-62.2283576681552,-61.6669165934018,-60.9199693677487,-60.1563483045338,-59.25613958705,-58.4790499254879,-57.7378603221858,-56.8317451341898,-56.0527133425528,-55.1974856749952,-54.3834758213572,-53.5758700235206,-52.716130302926,-51.7803715314191,-50.7666821538266,-49.7606135616628,-49.2891253347894,-48.4358297188781,-47.8249701002189,-47.3120521354841,-46.2078830871575,-45.5349188201976,-45.1009416500939,-44.3733524216531,-43.6542988341034,-42.924712225925,-42.0838835332011,-41.3434648090739,-40.5787930194245,-39.8990645660815,-39.2584751164412,-38.5332224635889,-37.8090121511711,-37.1314182147801,-36.4052990035144,-35.7459277312444,-35.1426897122988,-34.5118786951738,-33.8804791939252,-33.0260547650675,-32.5777343732543,-31.9318446171197,-31.2386638351998,-30.6179914724779,-30.18453988007,-29.7603252757981,-29.2321543489738,-28.8384709811224,-28.3676647033625,-27.8934844670424,-27.4994156886693,-27.1166167049297,-26.7398042732511,-26.3709185477556,-26.0039747465896,-25.5659235351612,-25.1644487209351,-24.8018421686441,-24.3444995652082,-23.8952434884956,-23.394830952563,-22.8751360586281,-22.3775165899851,-22.1043341013916,-21.8653239264538,-21.3795262452846,-20.9277310649861,-20.5913802980102,-20.1884808630983,-19.8042802832684,-19.4876087683812,-19.1823389078085,-18.8982677548045,-18.694989694827,-18.2969348261593,-18.0163501158325,-17.6912395008776,-17.520243988971,-17.4220991621556,-17.1647224124849,-16.9643317657594,-16.7862853793687,-16.6633895297789,-16.5208860851679,-16.333540260702,-16.0421785677606,-15.9435746252462,-15.7978717844878,-15.6476984600757,-15.5911356031552,-15.3822131096761,-15.2185026481739,-15.065794282812,-14.946093941671,-14.8522137084577,-14.686410656637,-14.3805163205588,-14.102259987958,-13.9198862028128,-13.7493134834879,-13.4543762795817,-13.1302795930044,-12.8499558716218,-12.5601752802584,-12.3161538170855,-11.997685200834,-11.5877129995072,-11.2412777976519,-10.8993920767926,-10.6662511305348,-10.5178473936969,-10.3077021680808,-10.1208469625254,-9.90051034458244,-9.6164908290095,-9.46981809406702,-9.29241609051873,-9.19397282362381,-9.06938243215532,-8.86915099795313,-8.73611689899883,-8.66615024568704,-8.64159135392502,-8.56281527578642,-8.50430690825853,-8.36150273803558,-8.33464602339985,-8.21415896473639,-8.10812265659212,-7.99399603009074,-7.97915898455971,-7.90444974344771,-7.69314591705919,-7.57010346667189,-7.50964894083353,-7.37637000246283,-7.21286030068029,-6.97963774625393,-6.87360333176867,-6.66149184174247,-6.51037241907035
-44.6571317720758,-44.7229508446538,-44.8883930247382,-45.1623696170774,-45.5510514435464,-46.0577520707279,-46.682960375258,-47.4243954328414,-48.2771990206199,-49.2341320732032,-50.2858849533287,-51.4213639739849,-52.6280618636515,-53.892374270591,-55.1999714575336,-56.5360903942097,-57.8858609022765,-59.2345366011512,-60.5677504651096,-61.8716720480247,-63.1331921765035,-64.340017397922,-65.4808040698887,-66.545217021678,-67.5240436878609,-68.4092479625774,-69.1940923601606,-69.8732089723066,-70.442742906834,-70.9004430484728,-71.2458178855791,-71.4802255004551,-71.6070104098471,-71.6315524307354,-71.5613378493663,-71.4059174551968,-71.1768630616352,-70.8875904067543,-70.5531652691815,-70.1899675509749,-69.8153383134722,-69.4470935126819,-69.1030387436318,-68.8003778418389,-68.5551579791159,-68.3816511359082,-68.2918198702969,-68.2947704291217,-68.3963419052743,-68.5987327532802,-68.9003091059697,-69.2954895297695,-69.774841804606,-70.3252756602629,-70.9304549176184,-71.5712998767495,-72.226689878238,-72.8742234642474,-73.4911332948886,-74.055201639815,-74.5457636450166,-74.9446363330734,-75.2370551587877,-75.4124535135814,-75.4651675118944,-75.3949052304213,-75.2070698862796,-74.9127866726431,-74.5287365989968,-74.0766640340126,-73.5826810744868,-73.0762575507448,-72.5890436308948,-72.1534386363858,-71.8010778813101,-71.5611749907554,-71.4589131738195,-71.5138411356954,-71.7384806114461,-72.1371087298999,-72.704922568856,-73.4275413582401,-74.2810370857263,-75.2324231173857,-76.2407565405837,-77.258740103734,-78.2349280653069,-79.1163643482025,-79.8516958514984,-80.3945264606224,-80.7069933537842,-80.7632747859777,-80.552962933549,-80.0839747512579,-79.3849132260409,-78.5065486653784,-77.5223492434212,-76.5277689335206,-75.6382827618876,-74.9859599568081,-74.714667484168,-74.9738144198623,-75.9108629197488,-77.6626579307178,-80.3459456585558,-84.0472732142898,-88.8127688035695,-94.6381062410233,-101.459239694824,-109.144267911584,-117.487032894391,-126.202790874408,-134.926496125246,-143.213927260629,-150.546045764879,-156.336626195532,-159.943323417139,-160.681964848421,-157.843963390968,-150.71636134764,-138.604126633605,-120.85395241741,-96.8789494973061,-66.1832892628978,-28.3860425225076,16.7568136775548,69.3329963474707,129.258102270608,196.264032874005,269.892444500789,349.493619270509,434.231224986837,523.092992352562,614.907374540569,708.365792238332,802.050098631982,894.464448599654,984.070816803318,1069.3270049834,1148.72610037811,1220.83601731188,1284.33796070157,1338.06241273783,1381.02154669506,1412.43682997514,1431.76097244447,1438.69331721336,1433.18823592451,1415.45608750299,1385.95680228905,1345.38616883265,1294.65540150045,1234.86455964602,1167.27084736963,1093.2527547652,1014.27138348362,931.830142569048,847.434285077087,762.551497239815,678.574934456451,596.78974174751,518.344189161187,444.226118239877,375.245425808799,312.022831728216,254.985181230228,204.36704647067,160.218409195347,122.417752369731,90.6899546753246,64.6279908527886,43.7175813236441,27.3636257832605,14.9174821512576,5.7039300279362,-0.953032432512377,-5.70655534729605,-9.16608863731528,-11.8800312955184,-14.32217548859,-16.8823101138525,-19.8609237627795,-23.4680212998579,-27.825664838346,-32.9739583385263,-38.879836677717,-45.4481819233696,-52.53449024332,-59.9585366103865,-67.5182468896737,-75.0032694972852,-82.207554794288,-88.9405790688977,-95.0367028892251,-100.362508939491,-104.821833065681,-108.358562207199,-110.957135473336,-112.641028779747,-113.469341781724,-113.531918894982,-112.943238430331,-111.835577843914,-110.351725289692,-108.637742564531,-106.836010419181,-105.078990130827,-103.483834704842,-102.14816605826,-101.147021077763,-100.5311466608,-100.326511577989,-100.535087825533,-101.136655091063,-102.091584584656,-103.344280617346,-104.827184211482,-106.464989234145,-108.178971082088,-109.891096215902,-111.527849897736,-113.023503962316,-114.322827855159,-115.383038826728,-116.175072511602,-116.684047613778,-116.909079837043,-116.862385509944,-116.567886955073,-116.059305211698,-115.377984374845,-114.570451965867,-113.685965226107,-112.774041046268,-111.882201753824,-111.053907600647,-110.326874143439,-109.731706361571,-109.291005959701,-109.018841346133,-108.920695736803,-108.993744950396,-109.227546904322,-109.604966500539,-110.103396329126,-110.696081980502,-111.353604247881,-112.045325396121,-112.740856227838,-113.411360968046,-114.030771118389,-114.576743371987,-115.031453474305,-115.382083516201,-115.621117614255,-115.74632627062,-115.760576045448,-115.671364613723,-115.49023506128,-115.231983619288,-114.913825321453,-114.55443865005,-114.173056637135,-113.788524605847,-113.418487436232,-113.078618555734,-112.782042574666,-112.53885035859,-112.35584323414,-112.236388780008,-112.180508185997,-112.185061301597,-112.244134148261,-112.349481616221,-112.49111912984,-112.657907910936,-112.838222780221,-113.020545719746,-113.194076186065,-113.349206747196,-113.47796336014,-113.5742696891,-113.634147502367,-113.655726460261,-113.639189672761,-113.586542327985,-113.501342652213,-113.388293590955,-113.252843185946,-113.100697936187,-112.937399923393,-112.767871603626,-112.596075551726,-112.424686720431,-112.254915735877,-112.086370155759,-111.917080359224,-111.743564637909,-111.561048025302,-111.363698228954,-111.144983558462,-110.898008659191,-110.615927874482,-110.292289700435,-109.921412608411,-109.498648857335,-109.020642184961,-108.485443682201,-107.892600990081,-107.243095363752,-106.539252352532,-105.784510994023,-104.983186777126,-104.14012140509,-103.260360944884,-102.348759612775,-101.409652709671,-100.44649555125,-99.4616092640082,-98.455925631639,-97.4288655104277,-96.3782353640234,-95.3002679874016,-94.1896832007806,-93.0398859848244,-91.8431698720487,-90.5910361389462,-89.2744910568149,-87.8844277991122,-86.4119530678817,-84.8487646318272,-83.1874411637041,-81.4217534753388,-79.546862797867,-77.5595205334384,-75.458141195151,-73.2428694246468,-70.9155193137037,-68.479513145791,-65.9397034325869,-63.3022101852987,-60.5741611055936,-57.7634693060534,-54.878537715313,-51.9280250525283,-48.9205616688491,-45.8645482659226,-42.767923054435,-39.6380269560138,-36.4814485398468,-33.3039741750759,-30.1105209277356,-26.9051736764927,-23.6912002982618,-20.4711631931295,-17.24699837728,-14.0201784462253,-10.791829360733,-7.56291677216574,-4.3343719120964,-1.10727343288591,2.11704359126199,5.33683351555198,8.54986771047057,11.7533237905237,14.9437611756473,18.1170607134646,21.2684509728875,24.3924970319633,27.4831726957917,30.5338905626642,33.5376097621644,36.4868949716389,39.3740460182817,42.1911714368567,44.9303253116981,47.5835810254975,50.1431616984656,52.6015015691276,54.9513588754879,57.1858553837304,59.2985641158298,61.2835214895303,63.1352865386637,64.848924569281,66.4200390593379,67.8447302634672,69.1196053673135,70.2417195808847,71.2085737922397,72.0180487536439,72.6684017687823,73.1582059288894,73.4863576431131,73.6520319734977,73.654710668481,73.4941612580972,73.1704906994433,72.6841503292013,72.0360138795587,71.2274035467843,70.2601841671766,69.1367989603527,67.8603656424485,66.4347054903042,64.8644237337403,63.1549139424998,61.3124054107439,59.3439273687843,57.2573106880713,55.0611030007949,52.7645203173342,50.3773136759963,47.9096765680049,45.3720742185912,42.7751227395672,40.1294010818709,37.4453250958492,34.7329672643118,32.0019513340009,29.2613045904164,26.5193954706972,23.7838370912215,21.057377156999,18.3543489401266,15.6760134029141,13.0269827984959,10.4111998145386,7.83206566486895,5.29249599301816,2.79506320644629,0.342053141619384,-2.06440500158579,-4.42230639673176,-6.72967512914263,-8.98457389219515,-11.1850548989739,-13.3292170027828,-15.4152016510291,-17.4412893908298,-19.405926653153,-21.3078422105283,-23.1460814468571,-24.9201170941991,-26.6298647404556,-28.2757628310504,-29.8587473763636,-31.3802837154536,-32.8422887256759,-34.2471093496723,-35.5973944615933,-36.8960294468018,-38.1459736565055,-39.3501726770565,-40.5113873928251,-41.6321127265722,-42.714428039008,-43.7599511263691,-44.7697359603257,-45.7442834932486,-46.6835024433107,-47.5867857424596,-48.4535326923584,-49.2810439877409,-50.0685648327341,-50.8142752392791,-51.5163105271904,-52.1730153685336,-52.7829753513672,-53.3452516440447,-53.8593790310769,-54.3255549397402,-54.744582429116,-55.1179979465408,-55.4479502904448,-55.737265117504,-55.9892648178497,-56.2077811348166,-56.3969328753156,-56.5611079616138,-56.7047233103691,-56.8322021577334,-56.9477419253359,-57.0553111555606,-57.1584469220476,-57.2602890901758,-57.3634203713121,-57.4699459424698,-57.5813789982483,-57.6987636117793,-57.8225991932282,-57.9529962664575,-58.089626689628,-58.231897404744,-58.378910729987,-58.529640653208,-58.6828889307868,-58.8374515659993,-58.8695480050934,-59.02067663355,-59.169583380858,-59.3152987998737,-59.3839295415407,-59.5278678117662,-59.6638202145614,-59.7912260740758,-59.9096486838922,-60.0188725956524,-60.1187678244688,-60.2093817600287,-60.2908002284171,-60.3632379395341,-60.4268992305017,-60.4820688824564,-60.5289735848382,-60.5678736367254,-60.5750715806162,-60.6006097279749,-60.5946880018156,-60.6047176079064,-60.6064046898295,-60.5993182231423,-60.5828529023173,-60.5563427620898,-60.5189490574794,-60.4697826320825,-60.4078017897227,-60.3319455261295,-60.2410426083699,-60.133955710306,-60.0095003681045,-59.8665972193737,-59.7041965827715,-59.5214332300141,-59.31754994387,-59.092047442634,-58.8445992156168,-58.5751890386605,-58.2840101388074,-57.9715844196285,-57.6386415431088,-57.2862172438912,-56.9250399864446,-56.5369364839038,-56.1335925279553,-55.7166982183753,-55.287921474777,-54.8964301737855,-54.4633702277118,-54.0039730611124,-53.5251889066405,-53.1229216477422,-52.5962687413687,-52.0442397766082,-51.4553496789064,-51.0196593862353,-50.6015139970645,-50.0585454406084,-49.5748164061316,-49.1233337795101,-48.7585949898635,-48.3368876977967,-47.8718663002664,-47.2880259692684,-46.692329048765,-46.1500406462288,-45.6253687673727,-44.9219396055252,-44.4815747002514,-43.8977853712077,-43.2666626498108,-42.7837862313737,-42.1567747336271,-41.6219617692212,-40.9636393221698,-40.150007896656,-39.6457520060528,-38.9826405714698,-38.6165968877986,-38.3371030195977,-37.5176362760912,-37.1128314424581,-36.549611028064,-36.0066756712208,-35.4883292340838,-34.8533947347679,-34.1899709953197,-33.6474492083258,-33.2024079738019,-32.6661642470351,-32.3646078974159,-31.8534844193994,-30.9042884677652,-30.3277036026012,-29.8860372719965,-29.3724607538238,-28.7503632032393,-28.2433739096797,-27.7356253984981,-27.0456453824617,-26.6054043706275,-25.9891312252487,-25.479851137947,-25.0378854630143,-24.6954721354834,-24.3191379398888,-24.0071594842429,-23.7599646892516,-23.3358303219737,-22.9838187925983,-22.5296594469371,-22.1076112523015,-21.6195753582081,-21.1849501543876,-20.9416250096128,-20.4820888523737,-20.149550614241,-19.7882118469691,-19.4977912798037,-19.0971893103479,-18.7493654142055,-18.3988016810094,-17.9724429143603,-17.8292155702141,-17.5699871578101,-17.2203980704723,-16.8472545786011,-16.550555079766,-16.2324218593506,-15.905438201053,-15.6770292231463,-15.4214057053382,-15.12501187938,-14.9270894352539,-14.6494591618199,-14.4116908688056,-14.2676121576436,-14.0882484720898,-14.0359380943322,-13.8215372868707,-13.6851118920739,-13.5838043812843,-13.481383081923,-13.3909672099883,-13.2670885439947,-12.9995372535702,-12.798426839729,-12.6645677055794,-12.5377697145955,-12.4738764620197,-12.2697480340736,-12.066048382785,-11.9305533028426,-11.8110954159982,-11.7063677886952,-11.5286021602292,-11.3526536723802,-11.0636568289947,-10.8177889067586,-10.6549002052289,-10.4888730566737,-10.1994380634572,-9.9077711475505,-9.67688226296315,-9.47783209216421,-9.20023247618283,-8.84385921354263,-8.54439618572403,-8.29901561689925,-8.13397517670461,-7.99567908371466,-7.84730691787678,-7.65778579602756,-7.50060177643283,-7.25027127877276,-7.17858545766848,-7.04785971885763,-7.00429355662528,-6.92232934577124,-6.78483738920289,-6.65935293856204,-6.66460723818931,-6.67351404037766,-6.63383230314045,-6.63109496412352,-6.53884143664421,-6.51416353277649,-6.39960151520673,-6.30235616550509,-6.22885294646829,-6.19950803181445,-6.12736231337167,-5.9022322076022,-5.78985019387841,-5.73650524122587,-5.61644910778456,-5.4801731179411,-5.30452413927642,-5.2219260632051,-5.05591925437212,-4.89638248335758
